[Measurement conditions]
Sample identification,
Comment - 1,"Configuration=Filmes Finos 19_1_2015, Owner=User-1, Creation date=19/01/2015 21:17:15"
Comment - 2,"Goniometer=PW3050/60 (Theta/Theta); Minimum step size 2Theta:0.001; Minimum step size Omega:0.001"
Comment - 3,"Sample stage=PW3071/xx Bracket"
Comment - 4,"Diffractometer system=XPERT-PRO"
Comment - 5,"Measurement program=C:\PANalytical\Data Collector\Programs\GrazingIncidence.xrdmp, Identifier={56BCC7D6-C695-42C6-9FE3-F6764B4E71BD}"
Anode material,Cu
K-Alpha1 wavelength,1.5405980
K-Alpha2 wavelength,1.5444260
Ratio K-Alpha2/K-Alpha1,0.500
Receiving slit,0.10
Monochromator used,YES
Generator voltage, 40
Tube current, 40
File date and time,15/Apr/2016 14:39
Unit cell,
h k l, 0 0 0
Scan axis,2Theta
Scan range,20.000,60.000
Scan step size,0.0200000
No. of points, 2001
Scan type,PRE-SET COUNTS
Omega,1.500
Time per step,15.00
[Scan points]
Angle,Intensity
20.000,36
20.020,33
20.040,29
20.060,34
20.080,34
20.100,31
20.120,48
20.140,37
20.160,32
20.180,46
20.200,37
20.220,48
20.240,42
20.260,33
20.280,33
20.300,44
20.320,42
20.340,37
20.360,46
20.380,44
20.400,34
20.420,33
20.440,41
20.460,49
20.480,47
20.500,35
20.520,32
20.540,40
20.560,33
20.580,44
20.600,42
20.620,45
20.640,32
20.660,36
20.680,45
20.700,31
20.720,31
20.740,38
20.760,38
20.780,42
20.800,45
20.820,41
20.840,23
20.860,46
20.880,36
20.900,24
20.920,37
20.940,35
20.960,40
20.980,32
21.000,54
21.020,44
21.040,36
21.060,33
21.080,41
21.100,35
21.120,29
21.140,42
21.160,39
21.180,34
21.200,50
21.220,33
21.240,35
21.260,32
21.280,31
21.300,31
21.320,37
21.340,31
21.360,49
21.380,35
21.400,41
21.420,35
21.440,43
21.460,32
21.480,32
21.500,39
21.520,40
21.540,25
21.560,45
21.580,29
21.600,44
21.620,32
21.640,39
21.660,31
21.680,29
21.700,35
21.720,47
21.740,34
21.760,40
21.780,37
21.800,33
21.820,37
21.840,43
21.860,41
21.880,29
21.900,43
21.920,27
21.940,26
21.960,39
21.980,37
22.000,38
22.020,42
22.040,45
22.060,32
22.080,45
22.100,44
22.120,45
22.140,30
22.160,46
22.180,42
22.200,39
22.220,47
22.240,34
22.260,43
22.280,41
22.300,46
22.320,39
22.340,45
22.360,47
22.380,42
22.400,37
22.420,41
22.440,42
22.460,37
22.480,27
22.500,44
22.520,34
22.540,48
22.560,47
22.580,44
22.600,38
22.620,42
22.640,36
22.660,32
22.680,43
22.700,43
22.720,34
22.740,35
22.760,45
22.780,42
22.800,45
22.820,44
22.840,46
22.860,30
22.880,44
22.900,34
22.920,44
22.940,46
22.960,46
22.980,37
23.000,29
23.020,46
23.040,42
23.060,47
23.080,41
23.100,38
23.120,48
23.140,33
23.160,36
23.180,32
23.200,41
23.220,38
23.240,34
23.260,37
23.280,49
23.300,53
23.320,54
23.340,44
23.360,39
23.380,52
23.400,59
23.420,37
23.440,49
23.460,39
23.480,36
23.500,47
23.520,41
23.540,50
23.560,45
23.580,41
23.600,40
23.620,47
23.640,37
23.660,39
23.680,47
23.700,45
23.720,44
23.740,44
23.760,62
23.780,43
23.800,48
23.820,32
23.840,69
23.860,51
23.880,45
23.900,54
23.920,46
23.940,48
23.960,40
23.980,61
24.000,69
24.020,46
24.040,47
24.060,72
24.080,45
24.100,46
24.120,39
24.140,49
24.160,50
24.180,45
24.200,49
24.220,49
24.240,48
24.260,49
24.280,50
24.300,52
24.320,50
24.340,47
24.360,46
24.380,51
24.400,43
24.420,56
24.440,65
24.460,68
24.480,63
24.500,61
24.520,50
24.540,57
24.560,57
24.580,53
24.600,66
24.620,61
24.640,50
24.660,58
24.680,62
24.700,63
24.720,69
24.740,79
24.760,70
24.780,66
24.800,64
24.820,71
24.840,66
24.860,57
24.880,56
24.900,70
24.920,76
24.940,71
24.960,66
24.980,69
25.000,64
25.020,84
25.040,78
25.060,73
25.080,71
25.100,92
25.120,97
25.140,87
25.160,105
25.180,100
25.200,78
25.220,83
25.240,82
25.260,105
25.280,113
25.300,133
25.320,123
25.340,129
25.360,150
25.380,172
25.400,184
25.420,209
25.440,227
25.460,269
25.480,312
25.500,334
25.520,366
25.540,447
25.560,520
25.580,552
25.600,621
25.620,693
25.640,729
25.660,767
25.680,940
25.700,944
25.720,1018
25.740,1037
25.760,1049
25.780,1095
25.800,1123
25.820,1068
25.840,1072
25.860,1059
25.880,1121
25.900,1053
25.920,1036
25.940,1045
25.960,1022
25.980,1089
26.000,1045
26.020,972
26.040,996
26.060,1001
26.080,948
26.100,1007
26.120,988
26.140,938
26.160,953
26.180,966
26.200,903
26.220,1019
26.240,1013
26.260,1029
26.280,1064
26.300,961
26.320,1029
26.340,1013
26.360,1079
26.380,1055
26.400,1089
26.420,1088
26.440,1153
26.460,1166
26.480,1193
26.500,1227
26.520,1267
26.540,1403
26.560,1343
26.580,1453
26.600,1473
26.620,1482
26.640,1549
26.660,1631
26.680,1691
26.700,1738
26.720,1795
26.740,1830
26.760,1957
26.780,2046
26.800,2185
26.820,2240
26.840,2275
26.860,2403
26.880,2511
26.900,2553
26.920,2667
26.940,2807
26.960,2751
26.980,3018
27.000,3017
27.020,3157
27.040,3003
27.060,3105
27.080,3085
27.100,3006
27.120,2991
27.140,2990
27.160,2855
27.180,2752
27.200,2705
27.220,2602
27.240,2542
27.260,2406
27.280,2270
27.300,2280
27.320,2177
27.340,2080
27.360,2040
27.380,2128
27.400,2094
27.420,2139
27.440,2041
27.460,1998
27.480,1983
27.500,2048
27.520,2058
27.540,2081
27.560,2090
27.580,2085
27.600,2046
27.620,2098
27.640,2181
27.660,2164
27.680,2085
27.700,2072
27.720,2071
27.740,1975
27.760,1921
27.780,1835
27.800,1715
27.820,1787
27.840,1637
27.860,1593
27.880,1469
27.900,1463
27.920,1404
27.940,1222
27.960,1247
27.980,1135
28.000,1012
28.020,981
28.040,929
28.060,832
28.080,777
28.100,738
28.120,687
28.140,669
28.160,608
28.180,592
28.200,536
28.220,530
28.240,509
28.260,468
28.280,450
28.300,449
28.320,401
28.340,380
28.360,352
28.380,362
28.400,340
28.420,348
28.440,319
28.460,290
28.480,306
28.500,280
28.520,288
28.540,262
28.560,262
28.580,254
28.600,236
28.620,245
28.640,236
28.660,217
28.680,236
28.700,212
28.720,220
28.740,212
28.760,220
28.780,205
28.800,200
28.820,216
28.840,190
28.860,202
28.880,241
28.900,223
28.920,192
28.940,182
28.960,204
28.980,208
29.000,189
29.020,212
29.040,171
29.060,179
29.080,197
29.100,201
29.120,159
29.140,196
29.160,169
29.180,195
29.200,198
29.220,204
29.240,187
29.260,183
29.280,178
29.300,189
29.320,178
29.340,220
29.360,199
29.380,218
29.400,210
29.420,204
29.440,206
29.460,191
29.480,196
29.500,185
29.520,201
29.540,218
29.560,190
29.580,222
29.600,234
29.620,232
29.640,201
29.660,210
29.680,211
29.700,215
29.720,214
29.740,224
29.760,238
29.780,221
29.800,242
29.820,214
29.840,195
29.860,233
29.880,223
29.900,253
29.920,245
29.940,237
29.960,241
29.980,222
30.000,256
30.020,232
30.040,235
30.060,230
30.080,239
30.100,251
30.120,216
30.140,247
30.160,233
30.180,225
30.200,236
30.220,220
30.240,229
30.260,224
30.280,218
30.300,222
30.320,194
30.340,219
30.360,204
30.380,221
30.400,210
30.420,168
30.440,206
30.460,210
30.480,192
30.500,172
30.520,204
30.540,223
30.560,187
30.580,186
30.600,178
30.620,183
30.640,180
30.660,157
30.680,181
30.700,179
30.720,174
30.740,190
30.760,152
30.780,147
30.800,174
30.820,162
30.840,139
30.860,146
30.880,145
30.900,158
30.920,133
30.940,139
30.960,138
30.980,138
31.000,141
31.020,123
31.040,129
31.060,139
31.080,136
31.100,122
31.120,116
31.140,90
31.160,115
31.180,127
31.200,106
31.220,100
31.240,103
31.260,103
31.280,120
31.300,101
31.320,110
31.340,117
31.360,96
31.380,106
31.400,117
31.420,115
31.440,87
31.460,110
31.480,95
31.500,94
31.520,98
31.540,90
31.560,91
31.580,107
31.600,84
31.620,93
31.640,94
31.660,73
31.680,75
31.700,80
31.720,98
31.740,84
31.760,77
31.780,93
31.800,70
31.820,71
31.840,85
31.860,78
31.880,70
31.900,79
31.920,71
31.940,81
31.960,63
31.980,82
32.000,74
32.020,75
32.040,79
32.060,69
32.080,82
32.100,75
32.120,85
32.140,65
32.160,66
32.180,74
32.200,84
32.220,60
32.240,83
32.260,82
32.280,71
32.300,81
32.320,73
32.340,77
32.360,59
32.380,62
32.400,58
32.420,75
32.440,81
32.460,63
32.480,65
32.500,74
32.520,56
32.540,74
32.560,74
32.580,69
32.600,88
32.620,75
32.640,75
32.660,62
32.680,59
32.700,72
32.720,76
32.740,81
32.760,60
32.780,66
32.800,63
32.820,64
32.840,77
32.860,62
32.880,70
32.900,70
32.920,62
32.940,74
32.960,71
32.980,75
33.000,67
33.020,70
33.040,77
33.060,68
33.080,79
33.100,66
33.120,70
33.140,84
33.160,62
33.180,66
33.200,75
33.220,66
33.240,59
33.260,77
33.280,65
33.300,64
33.320,60
33.340,70
33.360,58
33.380,63
33.400,50
33.420,79
33.440,59
33.460,63
33.480,55
33.500,71
33.520,78
33.540,74
33.560,75
33.580,80
33.600,72
33.620,70
33.640,68
33.660,64
33.680,59
33.700,59
33.720,59
33.740,69
33.760,69
33.780,66
33.800,73
33.820,60
33.840,58
33.860,69
33.880,64
33.900,78
33.920,72
33.940,65
33.960,47
33.980,66
34.000,63
34.020,58
34.040,79
34.060,69
34.080,70
34.100,82
34.120,75
34.140,70
34.160,64
34.180,72
34.200,72
34.220,77
34.240,63
34.260,84
34.280,55
34.300,55
34.320,69
34.340,65
34.360,85
34.380,64
34.400,72
34.420,64
34.440,64
34.460,63
34.480,73
34.500,58
34.520,66
34.540,65
34.560,62
34.580,66
34.600,74
34.620,75
34.640,71
34.660,70
34.680,54
34.700,73
34.720,62
34.740,67
34.760,69
34.780,69
34.800,67
34.820,59
34.840,58
34.860,63
34.880,65
34.900,64
34.920,77
34.940,68
34.960,62
34.980,60
35.000,70
35.020,68
35.040,69
35.060,59
35.080,60
35.100,79
35.120,79
35.140,63
35.160,49
35.180,57
35.200,74
35.220,71
35.240,69
35.260,79
35.280,67
35.300,63
35.320,59
35.340,61
35.360,82
35.380,72
35.400,65
35.420,73
35.440,72
35.460,72
35.480,58
35.500,63
35.520,82
35.540,73
35.560,67
35.580,62
35.600,72
35.620,47
35.640,72
35.660,52
35.680,71
35.700,58
35.720,74
35.740,74
35.760,69
35.780,74
35.800,70
35.820,73
35.840,65
35.860,56
35.880,64
35.900,63
35.920,67
35.940,61
35.960,63
35.980,70
36.000,86
36.020,64
36.040,53
36.060,65
36.080,57
36.100,77
36.120,53
36.140,57
36.160,71
36.180,62
36.200,62
36.220,64
36.240,63
36.260,67
36.280,68
36.300,56
36.320,82
36.340,54
36.360,63
36.380,62
36.400,58
36.420,72
36.440,57
36.460,54
36.480,63
36.500,48
36.520,53
36.540,72
36.560,57
36.580,56
36.600,78
36.620,65
36.640,80
36.660,70
36.680,73
36.700,51
36.720,56
36.740,72
36.760,60
36.780,67
36.800,52
36.820,75
36.840,56
36.860,64
36.880,61
36.900,56
36.920,64
36.940,63
36.960,76
36.980,63
37.000,83
37.020,70
37.040,64
37.060,61
37.080,65
37.100,65
37.120,63
37.140,64
37.160,56
37.180,74
37.200,75
37.220,65
37.240,59
37.260,56
37.280,57
37.300,73
37.320,60
37.340,46
37.360,61
37.380,76
37.400,51
37.420,48
37.440,53
37.460,56
37.480,65
37.500,63
37.520,56
37.540,65
37.560,61
37.580,62
37.600,59
37.620,57
37.640,57
37.660,63
37.680,57
37.700,54
37.720,62
37.740,52
37.760,66
37.780,59
37.800,58
37.820,71
37.840,57
37.860,62
37.880,36
37.900,54
37.920,62
37.940,69
37.960,48
37.980,78
38.000,61
38.020,63
38.040,53
38.060,56
38.080,50
38.100,48
38.120,56
38.140,60
38.160,54
38.180,50
38.200,53
38.220,57
38.240,54
38.260,54
38.280,68
38.300,60
38.320,64
38.340,51
38.360,57
38.380,59
38.400,64
38.420,61
38.440,57
38.460,56
38.480,60
38.500,76
38.520,56
38.540,51
38.560,65
38.580,68
38.600,60
38.620,51
38.640,70
38.660,62
38.680,62
38.700,49
38.720,49
38.740,55
38.760,40
38.780,60
38.800,54
38.820,63
38.840,42
38.860,65
38.880,52
38.900,44
38.920,67
38.940,71
38.960,59
38.980,64
39.000,59
39.020,50
39.040,71
39.060,60
39.080,59
39.100,51
39.120,59
39.140,70
39.160,62
39.180,68
39.200,69
39.220,57
39.240,69
39.260,46
39.280,62
39.300,59
39.320,53
39.340,65
39.360,53
39.380,70
39.400,59
39.420,58
39.440,58
39.460,58
39.480,48
39.500,66
39.520,64
39.540,57
39.560,63
39.580,71
39.600,49
39.620,60
39.640,57
39.660,63
39.680,50
39.700,58
39.720,64
39.740,61
39.760,59
39.780,65
39.800,68
39.820,50
39.840,64
39.860,50
39.880,40
39.900,60
39.920,52
39.940,58
39.960,55
39.980,64
40.000,68
40.020,47
40.040,53
40.060,74
40.080,43
40.100,52
40.120,63
40.140,54
40.160,49
40.180,50
40.200,62
40.220,54
40.240,61
40.260,57
40.280,63
40.300,53
40.320,64
40.340,49
40.360,59
40.380,60
40.400,65
40.420,60
40.440,42
40.460,58
40.480,56
40.500,59
40.520,65
40.540,55
40.560,49
40.580,70
40.600,64
40.620,64
40.640,61
40.660,56
40.680,44
40.700,70
40.720,54
40.740,60
40.760,49
40.780,59
40.800,54
40.820,65
40.840,49
40.860,58
40.880,49
40.900,43
40.920,66
40.940,65
40.960,79
40.980,75
41.000,55
41.020,57
41.040,58
41.060,58
41.080,73
41.100,59
41.120,50
41.140,60
41.160,46
41.180,50
41.200,55
41.220,78
41.240,41
41.260,58
41.280,66
41.300,49
41.320,73
41.340,52
41.360,49
41.380,53
41.400,65
41.420,53
41.440,56
41.460,66
41.480,45
41.500,67
41.520,56
41.540,59
41.560,47
41.580,54
41.600,64
41.620,62
41.640,63
41.660,64
41.680,59
41.700,51
41.720,50
41.740,56
41.760,49
41.780,56
41.800,50
41.820,66
41.840,61
41.860,70
41.880,70
41.900,62
41.920,75
41.940,54
41.960,73
41.980,49
42.000,57
42.020,64
42.040,50
42.060,55
42.080,49
42.100,56
42.120,64
42.140,58
42.160,59
42.180,67
42.200,62
42.220,48
42.240,60
42.260,62
42.280,57
42.300,69
42.320,74
42.340,67
42.360,61
42.380,68
42.400,69
42.420,74
42.440,51
42.460,64
42.480,46
42.500,68
42.520,65
42.540,68
42.560,71
42.580,71
42.600,66
42.620,56
42.640,80
42.660,53
42.680,56
42.700,53
42.720,60
42.740,71
42.760,70
42.780,53
42.800,51
42.820,62
42.840,75
42.860,65
42.880,59
42.900,73
42.920,66
42.940,64
42.960,70
42.980,78
43.000,71
43.020,67
43.040,75
43.060,71
43.080,60
43.100,90
43.120,75
43.140,87
43.160,66
43.180,64
43.200,68
43.220,67
43.240,52
43.260,79
43.280,72
43.300,61
43.320,65
43.340,65
43.360,73
43.380,69
43.400,64
43.420,74
43.440,68
43.460,63
43.480,80
43.500,78
43.520,57
43.540,71
43.560,81
43.580,86
43.600,79
43.620,60
43.640,80
43.660,49
43.680,69
43.700,77
43.720,94
43.740,83
43.760,76
43.780,81
43.800,72
43.820,56
43.840,79
43.860,79
43.880,70
43.900,92
43.920,80
43.940,79
43.960,87
43.980,86
44.000,76
44.020,65
44.040,85
44.060,98
44.080,76
44.100,82
44.120,76
44.140,83
44.160,94
44.180,85
44.200,89
44.220,86
44.240,82
44.260,99
44.280,83
44.300,104
44.320,80
44.340,83
44.360,101
44.380,101
44.400,96
44.420,98
44.440,111
44.460,124
44.480,100
44.500,124
44.520,117
44.540,131
44.560,137
44.580,124
44.600,132
44.620,138
44.640,146
44.660,165
44.680,176
44.700,190
44.720,185
44.740,212
44.760,223
44.780,228
44.800,240
44.820,276
44.840,288
44.860,325
44.880,339
44.900,412
44.920,459
44.940,475
44.960,529
44.980,555
45.000,679
45.020,718
45.040,841
45.060,920
45.080,1028
45.100,1059
45.120,1214
45.140,1285
45.160,1451
45.180,1566
45.200,1699
45.220,1813
45.240,1916
45.260,2006
45.280,2122
45.300,2146
45.320,2174
45.340,2205
45.360,2240
45.380,2171
45.400,2158
45.420,2088
45.440,1947
45.460,1893
45.480,1800
45.500,1712
45.520,1555
45.540,1463
45.560,1256
45.580,1153
45.600,974
45.620,970
45.640,870
45.660,776
45.680,664
45.700,610
45.720,546
45.740,506
45.760,479
45.780,403
45.800,398
45.820,320
45.840,382
45.860,292
45.880,242
45.900,269
45.920,277
45.940,223
45.960,230
45.980,193
46.000,173
46.020,189
46.040,149
46.060,167
46.080,168
46.100,189
46.120,146
46.140,157
46.160,161
46.180,151
46.200,145
46.220,126
46.240,147
46.260,134
46.280,147
46.300,133
46.320,109
46.340,128
46.360,126
46.380,115
46.400,110
46.420,113
46.440,112
46.460,114
46.480,118
46.500,126
46.520,126
46.540,116
46.560,102
46.580,126
46.600,133
46.620,127
46.640,123
46.660,139
46.680,107
46.700,99
46.720,139
46.740,107
46.760,100
46.780,116
46.800,122
46.820,106
46.840,111
46.860,104
46.880,100
46.900,104
46.920,116
46.940,106
46.960,131
46.980,102
47.000,110
47.020,118
47.040,105
47.060,107
47.080,95
47.100,108
47.120,110
47.140,87
47.160,118
47.180,117
47.200,111
47.220,96
47.240,115
47.260,115
47.280,97
47.300,116
47.320,98
47.340,117
47.360,95
47.380,97
47.400,95
47.420,101
47.440,112
47.460,97
47.480,128
47.500,100
47.520,102
47.540,107
47.560,110
47.580,118
47.600,103
47.620,93
47.640,126
47.660,100
47.680,110
47.700,111
47.720,92
47.740,101
47.760,117
47.780,104
47.800,116
47.820,126
47.840,132
47.860,124
47.880,114
47.900,118
47.920,132
47.940,132
47.960,142
47.980,123
48.000,125
48.020,121
48.040,119
48.060,121
48.080,106
48.100,115
48.120,139
48.140,147
48.160,99
48.180,125
48.200,147
48.220,130
48.240,138
48.260,150
48.280,109
48.300,106
48.320,130
48.340,105
48.360,125
48.380,114
48.400,120
48.420,137
48.440,120
48.460,121
48.480,81
48.500,107
48.520,109
48.540,130
48.560,98
48.580,101
48.600,100
48.620,112
48.640,106
48.660,105
48.680,93
48.700,88
48.720,103
48.740,100
48.760,103
48.780,85
48.800,90
48.820,107
48.840,95
48.860,100
48.880,93
48.900,99
48.920,81
48.940,102
48.960,101
48.980,100
49.000,87
49.020,81
49.040,94
49.060,86
49.080,85
49.100,92
49.120,100
49.140,99
49.160,102
49.180,86
49.200,90
49.220,91
49.240,98
49.260,103
49.280,79
49.300,79
49.320,76
49.340,79
49.360,73
49.380,93
49.400,92
49.420,83
49.440,86
49.460,89
49.480,77
49.500,96
49.520,77
49.540,99
49.560,81
49.580,83
49.600,82
49.620,79
49.640,73
49.660,102
49.680,80
49.700,83
49.720,89
49.740,83
49.760,90
49.780,92
49.800,94
49.820,91
49.840,77
49.860,82
49.880,99
49.900,87
49.920,69
49.940,102
49.960,88
49.980,93
50.000,95
50.020,74
50.040,77
50.060,82
50.080,68
50.100,104
50.120,92
50.140,82
50.160,92
50.180,88
50.200,88
50.220,82
50.240,88
50.260,92
50.280,86
50.300,78
50.320,85
50.340,92
50.360,90
50.380,101
50.400,87
50.420,81
50.440,80
50.460,71
50.480,84
50.500,74
50.520,72
50.540,84
50.560,80
50.580,89
50.600,83
50.620,80
50.640,83
50.660,78
50.680,85
50.700,79
50.720,63
50.740,69
50.760,81
50.780,105
50.800,80
50.820,65
50.840,85
50.860,77
50.880,76
50.900,73
50.920,87
50.940,73
50.960,71
50.980,69
51.000,76
51.020,63
51.040,83
51.060,59
51.080,73
51.100,70
51.120,79
51.140,83
51.160,61
51.180,76
51.200,73
51.220,64
51.240,74
51.260,64
51.280,73
51.300,57
51.320,70
51.340,75
51.360,69
51.380,73
51.400,74
51.420,62
51.440,77
51.460,70
51.480,75
51.500,57
51.520,64
51.540,54
51.560,79
51.580,74
51.600,79
51.620,65
51.640,71
51.660,69
51.680,87
51.700,83
51.720,80
51.740,80
51.760,62
51.780,73
51.800,71
51.820,77
51.840,69
51.860,76
51.880,68
51.900,76
51.920,95
51.940,80
51.960,79
51.980,79
52.000,72
52.020,76
52.040,53
52.060,73
52.080,82
52.100,71
52.120,84
52.140,86
52.160,68
52.180,86
52.200,77
52.220,91
52.240,82
52.260,98
52.280,91
52.300,80
52.320,95
52.340,92
52.360,67
52.380,98
52.400,85
52.420,92
52.440,80
52.460,105
52.480,94
52.500,88
52.520,116
52.540,107
52.560,92
52.580,130
52.600,110
52.620,130
52.640,121
52.660,105
52.680,130
52.700,130
52.720,147
52.740,148
52.760,136
52.780,176
52.800,189
52.820,190
52.840,174
52.860,189
52.880,200
52.900,204
52.920,215
52.940,255
52.960,252
52.980,236
53.000,266
53.020,276
53.040,309
53.060,299
53.080,287
53.100,330
53.120,332
53.140,368
53.160,367
53.180,363
53.200,360
53.220,387
53.240,409
53.260,394
53.280,429
53.300,443
53.320,412
53.340,427
53.360,463
53.380,444
53.400,409
53.420,429
53.440,437
53.460,399
53.480,434
53.500,380
53.520,402
53.540,414
53.560,374
53.580,346
53.600,365
53.620,366
53.640,376
53.660,345
53.680,366
53.700,343
53.720,329
53.740,355
53.760,321
53.780,295
53.800,320
53.820,291
53.840,317
53.860,305
53.880,266
53.900,273
53.920,242
53.940,288
53.960,270
53.980,257
54.000,239
54.020,246
54.040,233
54.060,247
54.080,224
54.100,227
54.120,233
54.140,208
54.160,201
54.180,193
54.200,176
54.220,183
54.240,217
54.260,213
54.280,182
54.300,202
54.320,185
54.340,180
54.360,178
54.380,182
54.400,152
54.420,192
54.440,175
54.460,151
54.480,193
54.500,176
54.520,182
54.540,173
54.560,176
54.580,187
54.600,172
54.620,150
54.640,168
54.660,168
54.680,162
54.700,182
54.720,191
54.740,165
54.760,199
54.780,171
54.800,178
54.820,210
54.840,184
54.860,191
54.880,187
54.900,217
54.920,190
54.940,193
54.960,228
54.980,224
55.000,233
55.020,220
55.040,237
55.060,233
55.080,224
55.100,233
55.120,244
55.140,227
55.160,228
55.180,243
55.200,240
55.220,238
55.240,254
55.260,272
55.280,288
55.300,261
55.320,272
55.340,289
55.360,349
55.380,304
55.400,286
55.420,262
55.440,297
55.460,293
55.480,313
55.500,329
55.520,296
55.540,303
55.560,318
55.580,293
55.600,298
55.620,296
55.640,299
55.660,341
55.680,306
55.700,300
55.720,307
55.740,328
55.760,315
55.780,308
55.800,334
55.820,315
55.840,295
55.860,326
55.880,323
55.900,284
55.920,296
55.940,321
55.960,291
55.980,318
56.000,314
56.020,259
56.040,278
56.060,292
56.080,272
56.100,277
56.120,248
56.140,268
56.160,250
56.180,186
56.200,239
56.220,215
56.240,186
56.260,195
56.280,184
56.300,199
56.320,184
56.340,157
56.360,177
56.380,147
56.400,156
56.420,130
56.440,153
56.460,105
56.480,119
56.500,136
56.520,113
56.540,118
56.560,97
56.580,122
56.600,96
56.620,107
56.640,97
56.660,107
56.680,97
56.700,98
56.720,95
56.740,89
56.760,86
56.780,91
56.800,70
56.820,86
56.840,85
56.860,73
56.880,83
56.900,67
56.920,91
56.940,70
56.960,69
56.980,82
57.000,69
57.020,77
57.040,52
57.060,65
57.080,62
57.100,69
57.120,83
57.140,54
57.160,66
57.180,77
57.200,49
57.220,71
57.240,67
57.260,56
57.280,60
57.300,54
57.320,60
57.340,63
57.360,58
57.380,54
57.400,50
57.420,48
57.440,55
57.460,66
57.480,46
57.500,52
57.520,66
57.540,45
57.560,59
57.580,60
57.600,40
57.620,55
57.640,48
57.660,48
57.680,48
57.700,51
57.720,49
57.740,55
57.760,53
57.780,47
57.800,49
57.820,50
57.840,47
57.860,60
57.880,66
57.900,47
57.920,52
57.940,38
57.960,56
57.980,55
58.000,49
58.020,47
58.040,43
58.060,50
58.080,43
58.100,41
58.120,52
58.140,48
58.160,56
58.180,46
58.200,48
58.220,43
58.240,43
58.260,40
58.280,42
58.300,37
58.320,45
58.340,52
58.360,41
58.380,53
58.400,49
58.420,45
58.440,41
58.460,51
58.480,50
58.500,44
58.520,56
58.540,43
58.560,39
58.580,52
58.600,44
58.620,40
58.640,50
58.660,44
58.680,45
58.700,57
58.720,45
58.740,48
58.760,37
58.780,30
58.800,58
58.820,41
58.840,33
58.860,43
58.880,43
58.900,52
58.920,43
58.940,43
58.960,43
58.980,59
59.000,38
59.020,48
59.040,42
59.060,47
59.080,26
59.100,47
59.120,47
59.140,41
59.160,41
59.180,51
59.200,47
59.220,35
59.240,33
59.260,38
59.280,45
59.300,41
59.320,39
59.340,47
59.360,32
59.380,38
59.400,44
59.420,51
59.440,38
59.460,53
59.480,46
59.500,45
59.520,49
59.540,45
59.560,49
59.580,45
59.600,32
59.620,39
59.640,49
59.660,49
59.680,32
59.700,48
59.720,48
59.740,44
59.760,40
59.780,27
59.800,38
59.820,40
59.840,39
59.860,40
59.880,31
59.900,50
59.920,45
59.940,48
59.960,35
59.980,36
60.000,43
