[Measurement conditions]
Sample identification,
Comment - 1,"Configuration=Filmes Finos 19_1_2015, Owner=User-1, Creation date=19/01/2015 21:17:15"
Comment - 2,"Goniometer=PW3050/60 (Theta/Theta); Minimum step size 2Theta:0.001; Minimum step size Omega:0.001"
Comment - 3,"Sample stage=PW3071/xx Bracket"
Comment - 4,"Diffractometer system=XPERT-PRO"
Comment - 5,"Measurement program=C:\PANalytical\Data Collector\Programs\GrazingIncidence.xrdmp, Identifier={BC538F88-BCB7-49B1-B949-146FB158B101}"
Anode material,Cu
K-Alpha1 wavelength,1.5405980
K-Alpha2 wavelength,1.5444260
Ratio K-Alpha2/K-Alpha1,0.500
Receiving slit,0.10
Monochromator used,YES
Generator voltage, 40
Tube current, 40
File date and time,19/Apr/2016 01:03
Unit cell,
h k l, 0 0 0
Scan axis,2Theta
Scan range,20.000,58.200
Scan step size,0.0200000
No. of points, 1911
Scan type,PRE-SET COUNTS
Omega,1.500
Time per step,15.00
[Scan points]
Angle,Intensity
20.000,52
20.020,42
20.040,38
20.060,32
20.080,36
20.100,39
20.120,33
20.140,50
20.160,43
20.180,33
20.200,41
20.220,36
20.240,35
20.260,39
20.280,32
20.300,36
20.320,35
20.340,40
20.360,43
20.380,34
20.400,38
20.420,28
20.440,36
20.460,35
20.480,43
20.500,38
20.520,38
20.540,37
20.560,51
20.580,30
20.600,38
20.620,47
20.640,35
20.660,30
20.680,36
20.700,48
20.720,34
20.740,38
20.760,39
20.780,40
20.800,30
20.820,39
20.840,30
20.860,35
20.880,41
20.900,39
20.920,36
20.940,29
20.960,32
20.980,37
21.000,28
21.020,40
21.040,26
21.060,45
21.080,38
21.100,36
21.120,34
21.140,36
21.160,42
21.180,45
21.200,36
21.220,33
21.240,39
21.260,26
21.280,34
21.300,35
21.320,46
21.340,32
21.360,39
21.380,34
21.400,41
21.420,31
21.440,43
21.460,35
21.480,41
21.500,41
21.520,37
21.540,37
21.560,38
21.580,22
21.600,29
21.620,46
21.640,32
21.660,34
21.680,34
21.700,32
21.720,39
21.740,38
21.760,39
21.780,33
21.800,42
21.820,35
21.840,40
21.860,29
21.880,27
21.900,33
21.920,38
21.940,21
21.960,35
21.980,35
22.000,42
22.020,33
22.040,30
22.060,40
22.080,35
22.100,33
22.120,40
22.140,26
22.160,40
22.180,39
22.200,24
22.220,46
22.240,33
22.260,45
22.280,37
22.300,43
22.320,45
22.340,34
22.360,33
22.380,44
22.400,37
22.420,35
22.440,41
22.460,45
22.480,39
22.500,51
22.520,39
22.540,35
22.560,41
22.580,39
22.600,35
22.620,35
22.640,28
22.660,44
22.680,49
22.700,45
22.720,38
22.740,33
22.760,39
22.780,35
22.800,35
22.820,35
22.840,35
22.860,37
22.880,37
22.900,31
22.920,38
22.940,35
22.960,38
22.980,41
23.000,37
23.020,34
23.040,38
23.060,52
23.080,43
23.100,41
23.120,36
23.140,38
23.160,28
23.180,30
23.200,44
23.220,42
23.240,40
23.260,53
23.280,51
23.300,44
23.320,39
23.340,46
23.360,45
23.380,45
23.400,42
23.420,47
23.440,52
23.460,49
23.480,53
23.500,38
23.520,39
23.540,60
23.560,29
23.580,37
23.600,38
23.620,62
23.640,43
23.660,59
23.680,46
23.700,41
23.720,59
23.740,47
23.760,45
23.780,46
23.800,50
23.820,49
23.840,56
23.860,50
23.880,38
23.900,51
23.920,53
23.940,54
23.960,41
23.980,42
24.000,44
24.020,35
24.040,67
24.060,55
24.080,44
24.100,48
24.120,43
24.140,63
24.160,56
24.180,57
24.200,41
24.220,42
24.240,38
24.260,54
24.280,56
24.300,55
24.320,56
24.340,58
24.360,51
24.380,52
24.400,68
24.420,44
24.440,53
24.460,61
24.480,53
24.500,54
24.520,48
24.540,54
24.560,59
24.580,50
24.600,59
24.620,50
24.640,63
24.660,61
24.680,49
24.700,67
24.720,64
24.740,73
24.760,62
24.780,60
24.800,71
24.820,76
24.840,69
24.860,76
24.880,83
24.900,61
24.920,61
24.940,77
24.960,57
24.980,78
25.000,65
25.020,87
25.040,72
25.060,74
25.080,77
25.100,79
25.120,102
25.140,102
25.160,86
25.180,94
25.200,101
25.220,100
25.240,120
25.260,107
25.280,120
25.300,135
25.320,120
25.340,155
25.360,165
25.380,176
25.400,210
25.420,225
25.440,255
25.460,273
25.480,318
25.500,401
25.520,449
25.540,495
25.560,557
25.580,608
25.600,688
25.620,768
25.640,798
25.660,864
25.680,972
25.700,1004
25.720,1050
25.740,1093
25.760,1096
25.780,1118
25.800,1093
25.820,1110
25.840,1115
25.860,1139
25.880,1087
25.900,1097
25.920,1089
25.940,1046
25.960,1056
25.980,1062
26.000,985
26.020,949
26.040,1029
26.060,920
26.080,988
26.100,970
26.120,965
26.140,922
26.160,889
26.180,886
26.200,892
26.220,903
26.240,958
26.260,935
26.280,989
26.300,956
26.320,975
26.340,982
26.360,1006
26.380,1002
26.400,976
26.420,996
26.440,1025
26.460,1064
26.480,1100
26.500,1174
26.520,1195
26.540,1215
26.560,1226
26.580,1223
26.600,1323
26.620,1337
26.640,1388
26.660,1486
26.680,1461
26.700,1583
26.720,1607
26.740,1679
26.760,1793
26.780,1772
26.800,1836
26.820,1951
26.840,2024
26.860,2125
26.880,2185
26.900,2228
26.920,2237
26.940,2366
26.960,2424
26.980,2457
27.000,2476
27.020,2454
27.040,2569
27.060,2481
27.080,2460
27.100,2433
27.120,2439
27.140,2409
27.160,2378
27.180,2295
27.200,2199
27.220,2166
27.240,2066
27.260,2108
27.280,2008
27.300,2040
27.320,1910
27.340,1838
27.360,1900
27.380,1793
27.400,1813
27.420,1800
27.440,1785
27.460,1750
27.480,1846
27.500,1878
27.520,1825
27.540,1817
27.560,1841
27.580,1793
27.600,1810
27.620,1773
27.640,1830
27.660,1780
27.680,1843
27.700,1758
27.720,1707
27.740,1651
27.760,1634
27.780,1568
27.800,1503
27.820,1396
27.840,1373
27.860,1267
27.880,1164
27.900,1168
27.920,1072
27.940,1015
27.960,957
27.980,866
28.000,862
28.020,811
28.040,771
28.060,694
28.080,641
28.100,607
28.120,548
28.140,546
28.160,490
28.180,541
28.200,445
28.220,482
28.240,413
28.260,432
28.280,390
28.300,352
28.320,348
28.340,301
28.360,312
28.380,341
28.400,311
28.420,303
28.440,259
28.460,294
28.480,284
28.500,249
28.520,249
28.540,235
28.560,247
28.580,232
28.600,220
28.620,246
28.640,262
28.660,208
28.680,216
28.700,192
28.720,192
28.740,192
28.760,176
28.780,166
28.800,175
28.820,209
28.840,197
28.860,206
28.880,166
28.900,170
28.920,180
28.940,195
28.960,180
28.980,185
29.000,179
29.020,182
29.040,193
29.060,188
29.080,176
29.100,185
29.120,156
29.140,173
29.160,166
29.180,193
29.200,191
29.220,196
29.240,179
29.260,172
29.280,174
29.300,190
29.320,165
29.340,199
29.360,194
29.380,171
29.400,190
29.420,209
29.440,209
29.460,189
29.480,181
29.500,197
29.520,206
29.540,215
29.560,210
29.580,207
29.600,205
29.620,196
29.640,241
29.660,197
29.680,193
29.700,224
29.720,220
29.740,192
29.760,204
29.780,217
29.800,206
29.820,232
29.840,208
29.860,209
29.880,248
29.900,216
29.920,210
29.940,254
29.960,196
29.980,249
30.000,209
30.020,247
30.040,256
30.060,245
30.080,233
30.100,215
30.120,228
30.140,206
30.160,211
30.180,251
30.200,240
30.220,215
30.240,205
30.260,207
30.280,190
30.300,189
30.320,214
30.340,192
30.360,189
30.380,164
30.400,165
30.420,188
30.440,165
30.460,170
30.480,168
30.500,160
30.520,185
30.540,151
30.560,169
30.580,138
30.600,153
30.620,165
30.640,140
30.660,142
30.680,139
30.700,122
30.720,147
30.740,154
30.760,149
30.780,137
30.800,131
30.820,136
30.840,129
30.860,131
30.880,131
30.900,119
30.920,129
30.940,114
30.960,135
30.980,122
31.000,127
31.020,119
31.040,120
31.060,120
31.080,108
31.100,115
31.120,118
31.140,86
31.160,101
31.180,99
31.200,99
31.220,113
31.240,114
31.260,100
31.280,96
31.300,100
31.320,104
31.340,80
31.360,110
31.380,94
31.400,96
31.420,97
31.440,91
31.460,73
31.480,84
31.500,88
31.520,86
31.540,102
31.560,73
31.580,67
31.600,79
31.620,80
31.640,81
31.660,79
31.680,79
31.700,79
31.720,89
31.740,80
31.760,75
31.780,80
31.800,76
31.820,74
31.840,82
31.860,84
31.880,79
31.900,72
31.920,72
31.940,84
31.960,72
31.980,77
32.000,67
32.020,71
32.040,71
32.060,71
32.080,76
32.100,73
32.120,70
32.140,65
32.160,83
32.180,70
32.200,82
32.220,74
32.240,58
32.260,72
32.280,77
32.300,66
32.320,60
32.340,75
32.360,79
32.380,64
32.400,84
32.420,77
32.440,62
32.460,65
32.480,67
32.500,72
32.520,78
32.540,67
32.560,74
32.580,61
32.600,61
32.620,65
32.640,68
32.660,79
32.680,68
32.700,86
32.720,62
32.740,62
32.760,84
32.780,71
32.800,56
32.820,65
32.840,73
32.860,61
32.880,63
32.900,65
32.920,67
32.940,74
32.960,52
32.980,65
33.000,79
33.020,66
33.040,78
33.060,64
33.080,71
33.100,65
33.120,66
33.140,67
33.160,54
33.180,68
33.200,73
33.220,76
33.240,53
33.260,72
33.280,67
33.300,70
33.320,62
33.340,52
33.360,75
33.380,74
33.400,71
33.420,61
33.440,66
33.460,70
33.480,58
33.500,62
33.520,57
33.540,73
33.560,66
33.580,59
33.600,84
33.620,60
33.640,60
33.660,66
33.680,85
33.700,71
33.720,64
33.740,59
33.760,62
33.780,58
33.800,76
33.820,49
33.840,62
33.860,68
33.880,47
33.900,63
33.920,67
33.940,63
33.960,67
33.980,45
34.000,57
34.020,59
34.040,73
34.060,82
34.080,56
34.100,62
34.120,74
34.140,65
34.160,68
34.180,61
34.200,68
34.220,60
34.240,68
34.260,69
34.280,59
34.300,78
34.320,74
34.340,66
34.360,73
34.380,64
34.400,64
34.420,77
34.440,65
34.460,50
34.480,68
34.500,60
34.520,57
34.540,63
34.560,77
34.580,81
34.600,77
34.620,57
34.640,53
34.660,62
34.680,52
34.700,75
34.720,66
34.740,67
34.760,69
34.780,73
34.800,46
34.820,61
34.840,74
34.860,57
34.880,65
34.900,67
34.920,59
34.940,66
34.960,62
34.980,65
35.000,74
35.020,66
35.040,54
35.060,77
35.080,65
35.100,63
35.120,59
35.140,59
35.160,64
35.180,65
35.200,69
35.220,55
35.240,64
35.260,59
35.280,75
35.300,71
35.320,61
35.340,64
35.360,71
35.380,75
35.400,86
35.420,84
35.440,68
35.460,94
35.480,74
35.500,67
35.520,68
35.540,67
35.560,55
35.580,77
35.600,85
35.620,58
35.640,72
35.660,70
35.680,73
35.700,65
35.720,77
35.740,53
35.760,69
35.780,56
35.800,59
35.820,64
35.840,71
35.860,67
35.880,72
35.900,69
35.920,57
35.940,54
35.960,75
35.980,60
36.000,63
36.020,56
36.040,55
36.060,77
36.080,55
36.100,73
36.120,68
36.140,70
36.160,70
36.180,75
36.200,80
36.220,62
36.240,64
36.260,82
36.280,73
36.300,69
36.320,68
36.340,58
36.360,55
36.380,55
36.400,74
36.420,68
36.440,68
36.460,57
36.480,65
36.500,59
36.520,63
36.540,63
36.560,61
36.580,52
36.600,52
36.620,47
36.640,54
36.660,53
36.680,72
36.700,57
36.720,70
36.740,70
36.760,60
36.780,60
36.800,54
36.820,69
36.840,63
36.860,67
36.880,58
36.900,55
36.920,62
36.940,61
36.960,49
36.980,60
37.000,59
37.020,58
37.040,58
37.060,61
37.080,52
37.100,54
37.120,63
37.140,78
37.160,56
37.180,75
37.200,56
37.220,47
37.240,69
37.260,60
37.280,50
37.300,66
37.320,56
37.340,62
37.360,74
37.380,66
37.400,50
37.420,47
37.440,69
37.460,55
37.480,47
37.500,50
37.520,54
37.540,69
37.560,58
37.580,45
37.600,48
37.620,63
37.640,54
37.660,77
37.680,53
37.700,50
37.720,55
37.740,61
37.760,70
37.780,59
37.800,66
37.820,54
37.840,58
37.860,49
37.880,50
37.900,63
37.920,66
37.940,58
37.960,58
37.980,77
38.000,58
38.020,53
38.040,50
38.060,59
38.080,71
38.100,67
38.120,59
38.140,68
38.160,70
38.180,71
38.200,70
38.220,62
38.240,56
38.260,59
38.280,76
38.300,73
38.320,67
38.340,59
38.360,78
38.380,48
38.400,65
38.420,64
38.440,60
38.460,72
38.480,46
38.500,52
38.520,70
38.540,63
38.560,54
38.580,51
38.600,64
38.620,58
38.640,67
38.660,59
38.680,57
38.700,51
38.720,61
38.740,57
38.760,55
38.780,57
38.800,59
38.820,59
38.840,68
38.860,60
38.880,66
38.900,44
38.920,47
38.940,39
38.960,60
38.980,65
39.000,47
39.020,51
39.040,67
39.060,56
39.080,51
39.100,50
39.120,61
39.140,62
39.160,61
39.180,55
39.200,55
39.220,60
39.240,67
39.260,55
39.280,62
39.300,70
39.320,67
39.340,51
39.360,59
39.380,60
39.400,48
39.420,57
39.440,62
39.460,61
39.480,44
39.500,67
39.520,64
39.540,55
39.560,51
39.580,56
39.600,52
39.620,54
39.640,47
39.660,68
39.680,56
39.700,62
39.720,49
39.740,56
39.760,51
39.780,64
39.800,56
39.820,56
39.840,62
39.860,53
39.880,63
39.900,68
39.920,63
39.940,39
39.960,60
39.980,52
40.000,51
40.020,47
40.040,53
40.060,59
40.080,44
40.100,45
40.120,49
40.140,51
40.160,65
40.180,51
40.200,67
40.220,46
40.240,59
40.260,56
40.280,67
40.300,60
40.320,64
40.340,56
40.360,65
40.380,55
40.400,64
40.420,50
40.440,65
40.460,66
40.480,63
40.500,59
40.520,50
40.540,61
40.560,53
40.580,42
40.600,76
40.620,38
40.640,69
40.660,49
40.680,72
40.700,56
40.720,46
40.740,66
40.760,58
40.780,55
40.800,64
40.820,66
40.840,58
40.860,67
40.880,58
40.900,57
40.920,48
40.940,49
40.960,54
40.980,52
41.000,55
41.020,65
41.040,67
41.060,54
41.080,58
41.100,63
41.120,66
41.140,63
41.160,49
41.180,61
41.200,57
41.220,50
41.240,60
41.260,52
41.280,54
41.300,49
41.320,61
41.340,52
41.360,58
41.380,59
41.400,53
41.420,66
41.440,66
41.460,59
41.480,62
41.500,58
41.520,61
41.540,72
41.560,59
41.580,48
41.600,54
41.620,57
41.640,58
41.660,54
41.680,68
41.700,56
41.720,63
41.740,66
41.760,60
41.780,65
41.800,63
41.820,52
41.840,58
41.860,60
41.880,63
41.900,59
41.920,68
41.940,53
41.960,56
41.980,70
42.000,60
42.020,60
42.040,68
42.060,57
42.080,68
42.100,43
42.120,54
42.140,49
42.160,62
42.180,64
42.200,48
42.220,59
42.240,59
42.260,50
42.280,68
42.300,63
42.320,53
42.340,66
42.360,57
42.380,69
42.400,67
42.420,59
42.440,70
42.460,53
42.480,68
42.500,60
42.520,75
42.540,69
42.560,75
42.580,57
42.600,50
42.620,68
42.640,56
42.660,58
42.680,62
42.700,51
42.720,64
42.740,75
42.760,66
42.780,62
42.800,68
42.820,63
42.840,56
42.860,59
42.880,65
42.900,61
42.920,70
42.940,56
42.960,62
42.980,54
43.000,57
43.020,74
43.040,69
43.060,58
43.080,70
43.100,65
43.120,66
43.140,66
43.160,47
43.180,61
43.200,64
43.220,81
43.240,56
43.260,71
43.280,70
43.300,66
43.320,73
43.340,71
43.360,61
43.380,72
43.400,80
43.420,68
43.440,72
43.460,75
43.480,64
43.500,66
43.520,78
43.540,73
43.560,73
43.580,88
43.600,58
43.620,66
43.640,80
43.660,88
43.680,69
43.700,66
43.720,79
43.740,73
43.760,76
43.780,77
43.800,89
43.820,66
43.840,75
43.860,67
43.880,84
43.900,74
43.920,71
43.940,74
43.960,79
43.980,76
44.000,82
44.020,61
44.040,80
44.060,63
44.080,76
44.100,72
44.120,89
44.140,85
44.160,94
44.180,83
44.200,92
44.220,85
44.240,90
44.260,95
44.280,96
44.300,86
44.320,89
44.340,78
44.360,92
44.380,110
44.400,88
44.420,105
44.440,101
44.460,111
44.480,103
44.500,91
44.520,101
44.540,112
44.560,104
44.580,115
44.600,107
44.620,139
44.640,149
44.660,139
44.680,147
44.700,144
44.720,163
44.740,161
44.760,170
44.780,183
44.800,206
44.820,207
44.840,235
44.860,256
44.880,271
44.900,285
44.920,346
44.940,372
44.960,454
44.980,459
45.000,512
45.020,581
45.040,721
45.060,800
45.080,760
45.100,992
45.120,1063
45.140,1207
45.160,1276
45.180,1367
45.200,1504
45.220,1550
45.240,1645
45.260,1755
45.280,1746
45.300,1827
45.320,1769
45.340,1777
45.360,1774
45.380,1681
45.400,1665
45.420,1635
45.440,1560
45.460,1384
45.480,1354
45.500,1218
45.520,1175
45.540,1080
45.560,962
45.580,871
45.600,810
45.620,689
45.640,676
45.660,547
45.680,585
45.700,475
45.720,475
45.740,372
45.760,376
45.780,346
45.800,308
45.820,304
45.840,288
45.860,271
45.880,228
45.900,251
45.920,223
45.940,196
45.960,169
45.980,181
46.000,174
46.020,178
46.040,159
46.060,138
46.080,147
46.100,136
46.120,151
46.140,127
46.160,120
46.180,135
46.200,146
46.220,127
46.240,121
46.260,130
46.280,117
46.300,107
46.320,107
46.340,115
46.360,144
46.380,105
46.400,115
46.420,132
46.440,114
46.460,98
46.480,106
46.500,101
46.520,121
46.540,109
46.560,112
46.580,115
46.600,114
46.620,97
46.640,111
46.660,105
46.680,107
46.700,119
46.720,108
46.740,98
46.760,104
46.780,100
46.800,111
46.820,86
46.840,105
46.860,115
46.880,102
46.900,112
46.920,115
46.940,87
46.960,107
46.980,112
47.000,93
47.020,117
47.040,95
47.060,105
47.080,108
47.100,104
47.120,91
47.140,119
47.160,97
47.180,104
47.200,97
47.220,79
47.240,100
47.260,84
47.280,86
47.300,98
47.320,103
47.340,86
47.360,106
47.380,81
47.400,95
47.420,111
47.440,117
47.460,116
47.480,94
47.500,105
47.520,104
47.540,103
47.560,85
47.580,98
47.600,94
47.620,123
47.640,85
47.660,96
47.680,78
47.700,117
47.720,101
47.740,105
47.760,117
47.780,90
47.800,116
47.820,114
47.840,111
47.860,96
47.880,118
47.900,130
47.920,106
47.940,92
47.960,106
47.980,75
48.000,99
48.020,97
48.040,115
48.060,86
48.080,124
48.100,101
48.120,110
48.140,88
48.160,110
48.180,117
48.200,121
48.220,115
48.240,100
48.260,99
48.280,110
48.300,99
48.320,99
48.340,98
48.360,88
48.380,112
48.400,101
48.420,103
48.440,111
48.460,104
48.480,101
48.500,105
48.520,94
48.540,71
48.560,82
48.580,88
48.600,97
48.620,85
48.640,90
48.660,98
48.680,83
48.700,104
48.720,85
48.740,91
48.760,76
48.780,91
48.800,77
48.820,91
48.840,72
48.860,62
48.880,71
48.900,83
48.920,83
48.940,80
48.960,83
48.980,85
49.000,87
49.020,85
49.040,88
49.060,87
49.080,82
49.100,89
49.120,85
49.140,68
49.160,75
49.180,92
49.200,87
49.220,82
49.240,92
49.260,80
49.280,88
49.300,88
49.320,90
49.340,82
49.360,73
49.380,87
49.400,74
49.420,102
49.440,91
49.460,94
49.480,69
49.500,87
49.520,81
49.540,91
49.560,77
49.580,73
49.600,93
49.620,70
49.640,70
49.660,78
49.680,86
49.700,66
49.720,78
49.740,65
49.760,70
49.780,82
49.800,60
49.820,74
49.840,75
49.860,63
49.880,83
49.900,73
49.920,66
49.940,84
49.960,72
49.980,95
50.000,72
50.020,75
50.040,89
50.060,72
50.080,86
50.100,74
50.120,62
50.140,75
50.160,75
50.180,70
50.200,68
50.220,69
50.240,88
50.260,69
50.280,79
50.300,82
50.320,81
50.340,62
50.360,68
50.380,84
50.400,87
50.420,87
50.440,84
50.460,73
50.480,74
50.500,60
50.520,77
50.540,73
50.560,86
50.580,77
50.600,59
50.620,81
50.640,63
50.660,76
50.680,81
50.700,81
50.720,65
50.740,92
50.760,62
50.780,76
50.800,73
50.820,71
50.840,81
50.860,86
50.880,80
50.900,67
50.920,80
50.940,81
50.960,62
50.980,70
51.000,54
51.020,69
51.040,68
51.060,71
51.080,62
51.100,80
51.120,67
51.140,64
51.160,72
51.180,80
51.200,71
51.220,66
51.240,67
51.260,59
51.280,60
51.300,73
51.320,76
51.340,63
51.360,73
51.380,55
51.400,46
51.420,81
51.440,83
51.460,75
51.480,63
51.500,75
51.520,66
51.540,52
51.560,73
51.580,71
51.600,56
51.620,67
51.640,64
51.660,69
51.680,74
51.700,71
51.720,62
51.740,64
51.760,61
51.780,75
51.800,67
51.820,70
51.840,76
51.860,49
51.880,76
51.900,71
51.920,69
51.940,76
51.960,54
51.980,61
52.000,55
52.020,66
52.040,63
52.060,66
52.080,76
52.100,89
52.120,73
52.140,85
52.160,68
52.180,81
52.200,80
52.220,75
52.240,72
52.260,61
52.280,74
52.300,102
52.320,90
52.340,89
52.360,68
52.380,95
52.400,87
52.420,95
52.440,84
52.460,68
52.480,98
52.500,101
52.520,110
52.540,97
52.560,103
52.580,91
52.600,102
52.620,109
52.640,112
52.660,136
52.680,129
52.700,119
52.720,122
52.740,114
52.760,133
52.780,108
52.800,145
52.820,129
52.840,172
52.860,146
52.880,159
52.900,149
52.920,163
52.940,184
52.960,150
52.980,201
53.000,189
53.020,209
53.040,216
53.060,220
53.080,232
53.100,230
53.120,243
53.140,250
53.160,260
53.180,268
53.200,296
53.220,284
53.240,273
53.260,276
53.280,327
53.300,352
53.320,318
53.340,330
53.360,299
53.380,321
53.400,329
53.420,335
53.440,374
53.460,337
53.480,326
53.500,334
53.520,327
53.540,305
53.560,300
53.580,289
53.600,309
53.620,288
53.640,330
53.660,298
53.680,297
53.700,315
53.720,274
53.740,308
53.760,271
53.780,269
53.800,259
53.820,261
53.840,231
53.860,225
53.880,279
53.900,229
53.920,225
53.940,261
53.960,239
53.980,200
54.000,230
54.020,207
54.040,207
54.060,181
54.080,225
54.100,178
54.120,185
54.140,177
54.160,188
54.180,178
54.200,173
54.220,148
54.240,173
54.260,178
54.280,153
54.300,169
54.320,173
54.340,185
54.360,165
54.380,141
54.400,171
54.420,171
54.440,170
54.460,158
54.480,170
54.500,149
54.520,167
54.540,133
54.560,164
54.580,147
54.600,160
54.620,149
54.640,162
54.660,159
54.680,163
54.700,147
54.720,175
54.740,141
54.760,147
54.780,137
54.800,152
54.820,169
54.840,158
54.860,156
54.880,131
54.900,159
54.920,140
54.940,181
54.960,186
54.980,160
55.000,156
55.020,173
55.040,192
55.060,181
55.080,182
55.100,195
55.120,183
55.140,193
55.160,181
55.180,201
55.200,206
55.220,197
55.240,195
55.260,194
55.280,205
55.300,225
55.320,235
55.340,235
55.360,221
55.380,206
55.400,213
55.420,215
55.440,217
55.460,233
55.480,261
55.500,223
55.520,242
55.540,245
55.560,253
55.580,217
55.600,209
55.620,242
55.640,236
55.660,247
55.680,239
55.700,243
55.720,240
55.740,228
55.760,219
55.780,225
55.800,255
55.820,231
55.840,246
55.860,240
55.880,262
55.900,231
55.920,221
55.940,251
55.960,215
55.980,225
56.000,213
56.020,227
56.040,219
56.060,239
56.080,221
56.100,203
56.120,206
56.140,202
56.160,160
56.180,178
56.200,156
56.220,160
56.240,187
56.260,152
56.280,168
56.300,153
56.320,165
56.340,132
56.360,127
56.380,132
56.400,125
56.420,107
56.440,96
56.460,111
56.480,114
56.500,82
56.520,98
56.540,111
56.560,123
56.580,127
56.600,92
56.620,84
56.640,81
56.660,83
56.680,113
56.700,89
56.720,68
56.740,72
56.760,95
56.780,84
56.800,70
56.820,91
56.840,77
56.860,73
56.880,69
56.900,69
56.920,71
56.940,72
56.960,75
56.980,71
57.000,84
57.020,81
57.040,62
57.060,59
57.080,72
57.100,73
57.120,70
57.140,59
57.160,61
57.180,63
57.200,65
57.220,60
57.240,55
57.260,65
57.280,64
57.300,55
57.320,66
57.340,44
57.360,59
57.380,55
57.400,60
57.420,44
57.440,58
57.460,60
57.480,57
57.500,50
57.520,66
57.540,68
57.560,49
57.580,68
57.600,54
57.620,45
57.640,71
57.660,56
57.680,49
57.700,49
57.720,58
57.740,58
57.760,58
57.780,53
57.800,60
57.820,60
57.840,56
57.860,36
57.880,50
57.900,49
57.920,63
57.940,48
57.960,47
57.980,44
58.000,42
58.020,50
58.040,43
58.060,45
58.080,51
58.100,49
58.120,41
58.140,56
58.160,47
58.180,55
58.200,63
