[Measurement conditions]
Sample identification,
Comment - 1,"Configuration=Filmes Finos 19_1_2015, Owner=User-1, Creation date=19/01/2015 21:17:15"
Comment - 2,"Goniometer=PW3050/60 (Theta/Theta); Minimum step size 2Theta:0.001; Minimum step size Omega:0.001"
Comment - 3,"Sample stage=PW3071/xx Bracket"
Comment - 4,"Diffractometer system=XPERT-PRO"
Comment - 5,"Measurement program=C:\PANalytical\Data Collector\Programs\GrazingIncidence.xrdmp, Identifier={3786F9F8-4607-4502-984F-A37399FDAA2B}"
Anode material,Cu
K-Alpha1 wavelength,1.5405980
K-Alpha2 wavelength,1.5444260
Ratio K-Alpha2/K-Alpha1,0.500
Divergence slit,Fixed,0.10mm
Receiving slit,0.10
Monochromator used,YES
Generator voltage, 40
Tube current, 40
File date and time,24/Jan/2018 00:30
Unit cell,
h k l, 0 0 0
Scan axis,2Theta
Scan range,8.000,60.000
Scan step size,0.0250000
No. of points, 2081
Scan type,STEP
Omega,1.000
Time per step,20.000
[Scan points]
Angle,Intensity
8.000,105
8.025,103
8.050,103
8.075,98
8.100,103
8.125,100
8.150,102
8.175,100
8.200,98
8.225,94
8.250,100
8.275,97
8.300,97
8.325,99
8.350,95
8.375,96
8.400,98
8.425,99
8.450,96
8.475,101
8.500,94
8.525,96
8.550,95
8.575,96
8.600,96
8.625,94
8.650,95
8.675,95
8.700,95
8.725,96
8.750,95
8.775,93
8.800,98
8.825,94
8.850,96
8.875,92
8.900,98
8.925,93
8.950,95
8.975,93
9.000,93
9.025,94
9.050,94
9.075,93
9.100,93
9.125,91
9.150,93
9.175,92
9.200,95
9.225,93
9.250,94
9.275,95
9.300,97
9.325,99
9.350,100
9.375,97
9.400,99
9.425,103
9.450,100
9.475,104
9.500,97
9.525,96
9.550,95
9.575,94
9.600,91
9.625,90
9.650,85
9.675,89
9.700,86
9.725,83
9.750,86
9.775,83
9.800,81
9.825,83
9.850,84
9.875,83
9.900,84
9.925,79
9.950,83
9.975,80
10.000,83
10.025,82
10.050,80
10.075,83
10.100,80
10.125,81
10.150,78
10.175,83
10.200,80
10.225,81
10.250,81
10.275,82
10.300,81
10.325,76
10.350,82
10.375,79
10.400,79
10.425,81
10.450,79
10.475,83
10.500,80
10.525,81
10.550,81
10.575,82
10.600,80
10.625,80
10.650,82
10.675,78
10.700,79
10.725,79
10.750,81
10.775,79
10.800,79
10.825,78
10.850,79
10.875,76
10.900,74
10.925,73
10.950,79
10.975,74
11.000,71
11.025,74
11.050,71
11.075,72
11.100,75
11.125,73
11.150,72
11.175,74
11.200,70
11.225,75
11.250,70
11.275,66
11.300,67
11.325,71
11.350,67
11.375,72
11.400,70
11.425,72
11.450,68
11.475,71
11.500,68
11.525,68
11.550,68
11.575,70
11.600,69
11.625,71
11.650,69
11.675,69
11.700,69
11.725,67
11.750,69
11.775,68
11.800,69
11.825,68
11.850,69
11.875,64
11.900,64
11.925,65
11.950,64
11.975,67
12.000,67
12.025,65
12.050,67
12.075,65
12.100,66
12.125,66
12.150,68
12.175,65
12.200,64
12.225,65
12.250,69
12.275,63
12.300,69
12.325,65
12.350,66
12.375,65
12.400,67
12.425,67
12.450,63
12.475,67
12.500,67
12.525,62
12.550,65
12.575,63
12.600,61
12.625,62
12.650,62
12.675,63
12.700,63
12.725,65
12.750,59
12.775,62
12.800,62
12.825,63
12.850,60
12.875,60
12.900,61
12.925,61
12.950,62
12.975,63
13.000,58
13.025,60
13.050,60
13.075,61
13.100,58
13.125,58
13.150,62
13.175,62
13.200,58
13.225,58
13.250,56
13.275,59
13.300,57
13.325,57
13.350,57
13.375,55
13.400,61
13.425,58
13.450,56
13.475,58
13.500,55
13.525,53
13.550,56
13.575,56
13.600,57
13.625,55
13.650,56
13.675,55
13.700,59
13.725,54
13.750,57
13.775,56
13.800,55
13.825,56
13.850,55
13.875,56
13.900,55
13.925,54
13.950,58
13.975,51
14.000,54
14.025,52
14.050,55
14.075,55
14.100,50
14.125,52
14.150,52
14.175,55
14.200,54
14.225,55
14.250,53
14.275,51
14.300,53
14.325,52
14.350,54
14.375,52
14.400,54
14.425,53
14.450,52
14.475,51
14.500,52
14.525,51
14.550,53
14.575,51
14.600,51
14.625,51
14.650,51
14.675,50
14.700,50
14.725,51
14.750,52
14.775,50
14.800,52
14.825,53
14.850,48
14.875,49
14.900,50
14.925,51
14.950,50
14.975,47
15.000,50
15.025,53
15.050,49
15.075,49
15.100,49
15.125,49
15.150,49
15.175,50
15.200,49
15.225,51
15.250,49
15.275,47
15.300,50
15.325,47
15.350,49
15.375,48
15.400,49
15.425,48
15.450,48
15.475,46
15.500,48
15.525,47
15.550,45
15.575,49
15.600,49
15.625,46
15.650,47
15.675,46
15.700,44
15.725,46
15.750,46
15.775,46
15.800,45
15.825,46
15.850,45
15.875,46
15.900,46
15.925,45
15.950,46
15.975,47
16.000,47
16.025,46
16.050,46
16.075,46
16.100,46
16.125,43
16.150,47
16.175,45
16.200,45
16.225,44
16.250,46
16.275,46
16.300,44
16.325,43
16.350,42
16.375,45
16.400,43
16.425,47
16.450,43
16.475,43
16.500,42
16.525,45
16.550,45
16.575,45
16.600,45
16.625,43
16.650,44
16.675,44
16.700,46
16.725,43
16.750,45
16.775,42
16.800,42
16.825,44
16.850,43
16.875,44
16.900,42
16.925,44
16.950,41
16.975,40
17.000,44
17.025,41
17.050,41
17.075,41
17.100,41
17.125,39
17.150,41
17.175,40
17.200,41
17.225,42
17.250,38
17.275,39
17.300,37
17.325,41
17.350,40
17.375,38
17.400,42
17.425,43
17.450,37
17.475,38
17.500,41
17.525,39
17.550,40
17.575,38
17.600,38
17.625,39
17.650,35
17.675,39
17.700,40
17.725,38
17.750,39
17.775,39
17.800,39
17.825,40
17.850,40
17.875,37
17.900,36
17.925,36
17.950,36
17.975,39
18.000,35
18.025,38
18.050,36
18.075,36
18.100,37
18.125,38
18.150,34
18.175,35
18.200,37
18.225,36
18.250,37
18.275,37
18.300,35
18.325,36
18.350,37
18.375,34
18.400,36
18.425,35
18.450,39
18.475,34
18.500,37
18.525,36
18.550,37
18.575,38
18.600,36
18.625,37
18.650,37
18.675,36
18.700,36
18.725,35
18.750,34
18.775,34
18.800,37
18.825,37
18.850,36
18.875,35
18.900,37
18.925,34
18.950,38
18.975,35
19.000,34
19.025,36
19.050,35
19.075,33
19.100,37
19.125,32
19.150,35
19.175,34
19.200,31
19.225,32
19.250,32
19.275,31
19.300,33
19.325,34
19.350,32
19.375,31
19.400,35
19.425,33
19.450,35
19.475,31
19.500,35
19.525,33
19.550,33
19.575,32
19.600,32
19.625,33
19.650,33
19.675,33
19.700,33
19.725,31
19.750,33
19.775,32
19.800,31
19.825,31
19.850,32
19.875,30
19.900,30
19.925,29
19.950,30
19.975,31
20.000,34
20.025,32
20.050,31
20.075,32
20.100,33
20.125,31
20.150,31
20.175,34
20.200,32
20.225,32
20.250,30
20.275,30
20.300,32
20.325,29
20.350,31
20.375,30
20.400,30
20.425,31
20.450,31
20.475,31
20.500,30
20.525,29
20.550,30
20.575,28
20.600,31
20.625,30
20.650,31
20.675,31
20.700,28
20.725,31
20.750,30
20.775,30
20.800,29
20.825,29
20.850,30
20.875,31
20.900,28
20.925,27
20.950,30
20.975,29
21.000,30
21.025,32
21.050,31
21.075,29
21.100,29
21.125,30
21.150,34
21.175,32
21.200,34
21.225,36
21.250,34
21.275,34
21.300,33
21.325,37
21.350,35
21.375,35
21.400,33
21.425,35
21.450,36
21.475,34
21.500,35
21.525,32
21.550,34
21.575,33
21.600,33
21.625,34
21.650,31
21.675,31
21.700,32
21.725,31
21.750,30
21.775,30
21.800,30
21.825,27
21.850,29
21.875,27
21.900,28
21.925,27
21.950,28
21.975,26
22.000,27
22.025,29
22.050,26
22.075,27
22.100,27
22.125,28
22.150,29
22.175,27
22.200,28
22.225,26
22.250,27
22.275,27
22.300,27
22.325,26
22.350,26
22.375,24
22.400,25
22.425,24
22.450,28
22.475,25
22.500,26
22.525,25
22.550,27
22.575,27
22.600,28
22.625,27
22.650,28
22.675,27
22.700,29
22.725,27
22.750,26
22.775,27
22.800,25
22.825,28
22.850,28
22.875,26
22.900,26
22.925,26
22.950,24
22.975,26
23.000,27
23.025,26
23.050,25
23.075,26
23.100,24
23.125,25
23.150,24
23.175,25
23.200,24
23.225,25
23.250,23
23.275,24
23.300,24
23.325,24
23.350,23
23.375,23
23.400,25
23.425,22
23.450,22
23.475,23
23.500,23
23.525,24
23.550,24
23.575,24
23.600,23
23.625,23
23.650,21
23.675,25
23.700,24
23.725,23
23.750,24
23.775,23
23.800,23
23.825,23
23.850,24
23.875,24
23.900,24
23.925,24
23.950,24
23.975,22
24.000,22
24.025,25
24.050,22
24.075,22
24.100,21
24.125,23
24.150,24
24.175,23
24.200,23
24.225,23
24.250,22
24.275,23
24.300,22
24.325,21
24.350,22
24.375,20
24.400,22
24.425,22
24.450,22
24.475,22
24.500,22
24.525,23
24.550,21
24.575,23
24.600,21
24.625,21
24.650,21
24.675,20
24.700,20
24.725,23
24.750,20
24.775,22
24.800,21
24.825,21
24.850,22
24.875,22
24.900,22
24.925,20
24.950,20
24.975,20
25.000,20
25.025,21
25.050,19
25.075,22
25.100,21
25.125,21
25.150,20
25.175,21
25.200,21
25.225,20
25.250,21
25.275,23
25.300,21
25.325,20
25.350,22
25.375,22
25.400,22
25.425,22
25.450,21
25.475,22
25.500,24
25.525,25
25.550,25
25.575,27
25.600,29
25.625,31
25.650,35
25.675,34
25.700,33
25.725,37
25.750,36
25.775,35
25.800,34
25.825,35
25.850,33
25.875,33
25.900,31
25.925,28
25.950,26
25.975,25
26.000,24
26.025,21
26.050,21
26.075,21
26.100,20
26.125,19
26.150,17
26.175,19
26.200,20
26.225,18
26.250,19
26.275,19
26.300,19
26.325,19
26.350,18
26.375,17
26.400,18
26.425,17
26.450,18
26.475,18
26.500,19
26.525,19
26.550,19
26.575,17
26.600,18
26.625,17
26.650,18
26.675,16
26.700,17
26.725,18
26.750,17
26.775,16
26.800,18
26.825,15
26.850,19
26.875,17
26.900,18
26.925,17
26.950,16
26.975,17
27.000,18
27.025,18
27.050,15
27.075,17
27.100,17
27.125,16
27.150,17
27.175,15
27.200,16
27.225,17
27.250,16
27.275,17
27.300,17
27.325,17
27.350,16
27.375,16
27.400,16
27.425,17
27.450,18
27.475,17
27.500,16
27.525,17
27.550,16
27.575,16
27.600,18
27.625,16
27.650,16
27.675,15
27.700,16
27.725,17
27.750,16
27.775,17
27.800,16
27.825,19
27.850,18
27.875,19
27.900,17
27.925,20
27.950,18
27.975,21
28.000,19
28.025,19
28.050,19
28.075,19
28.100,19
28.125,16
28.150,19
28.175,18
28.200,17
28.225,18
28.250,18
28.275,18
28.300,16
28.325,18
28.350,17
28.375,17
28.400,18
28.425,17
28.450,19
28.475,18
28.500,18
28.525,20
28.550,20
28.575,21
28.600,22
28.625,25
28.650,24
28.675,22
28.700,22
28.725,24
28.750,25
28.775,24
28.800,23
28.825,20
28.850,21
28.875,20
28.900,20
28.925,21
28.950,16
28.975,17
29.000,18
29.025,17
29.050,16
29.075,16
29.100,16
29.125,16
29.150,15
29.175,15
29.200,16
29.225,14
29.250,16
29.275,16
29.300,17
29.325,16
29.350,17
29.375,16
29.400,16
29.425,17
29.450,14
29.475,13
29.500,14
29.525,15
29.550,15
29.575,15
29.600,15
29.625,16
29.650,13
29.675,15
29.700,14
29.725,15
29.750,16
29.775,15
29.800,15
29.825,15
29.850,14
29.875,16
29.900,14
29.925,13
29.950,13
29.975,14
30.000,15
30.025,15
30.050,15
30.075,14
30.100,14
30.125,15
30.150,13
30.175,14
30.200,14
30.225,14
30.250,13
30.275,13
30.300,13
30.325,14
30.350,14
30.375,13
30.400,14
30.425,12
30.450,14
30.475,13
30.500,15
30.525,14
30.550,15
30.575,16
30.600,14
30.625,14
30.650,15
30.675,14
30.700,13
30.725,13
30.750,13
30.775,13
30.800,13
30.825,15
30.850,14
30.875,14
30.900,16
30.925,14
30.950,15
30.975,14
31.000,14
31.025,16
31.050,16
31.075,16
31.100,17
31.125,17
31.150,17
31.175,19
31.200,19
31.225,21
31.250,23
31.275,26
31.300,29
31.325,33
31.350,36
31.375,38
31.400,43
31.425,46
31.450,49
31.475,52
31.500,53
31.525,59
31.550,59
31.575,59
31.600,57
31.625,56
31.650,57
31.675,52
31.700,45
31.725,45
31.750,43
31.775,40
31.800,38
31.825,37
31.850,35
31.875,35
31.900,34
31.925,32
31.950,34
31.975,34
32.000,34
32.025,34
32.050,34
32.075,33
32.100,32
32.125,30
32.150,26
32.175,28
32.200,23
32.225,26
32.250,22
32.275,24
32.300,23
32.325,23
32.350,23
32.375,24
32.400,26
32.425,28
32.450,30
32.475,30
32.500,35
32.525,38
32.550,40
32.575,44
32.600,46
32.625,45
32.650,46
32.675,51
32.700,48
32.725,51
32.750,48
32.775,45
32.800,42
32.825,40
32.850,40
32.875,34
32.900,30
32.925,28
32.950,26
32.975,24
33.000,18
33.025,18
33.050,16
33.075,15
33.100,16
33.125,16
33.150,14
33.175,15
33.200,14
33.225,14
33.250,13
33.275,12
33.300,13
33.325,12
33.350,13
33.375,12
33.400,12
33.425,13
33.450,13
33.475,10
33.500,12
33.525,12
33.550,12
33.575,13
33.600,13
33.625,12
33.650,13
33.675,14
33.700,14
33.725,14
33.750,13
33.775,15
33.800,15
33.825,16
33.850,16
33.875,16
33.900,15
33.925,17
33.950,17
33.975,16
34.000,17
34.025,14
34.050,14
34.075,14
34.100,12
34.125,12
34.150,12
34.175,11
34.200,10
34.225,11
34.250,10
34.275,10
34.300,10
34.325,10
34.350,10
34.375,10
34.400,11
34.425, 9
34.450, 9
34.475,10
34.500,10
34.525, 9
34.550,10
34.575,10
34.600,11
34.625,10
34.650, 9
34.675,10
34.700,11
34.725,10
34.750,10
34.775,10
34.800, 9
34.825,10
34.850,10
34.875, 9
34.900,10
34.925,10
34.950,10
34.975, 9
35.000,10
35.025,10
35.050,10
35.075,10
35.100,11
35.125,12
35.150,10
35.175,12
35.200,12
35.225,12
35.250,11
35.275,10
35.300,10
35.325,10
35.350,11
35.375,11
35.400,10
35.425,11
35.450,11
35.475,10
35.500,10
35.525,11
35.550, 9
35.575, 8
35.600,10
35.625, 9
35.650,10
35.675, 8
35.700, 9
35.725, 9
35.750,10
35.775,10
35.800, 9
35.825, 9
35.850, 9
35.875, 8
35.900, 9
35.925, 8
35.950, 9
35.975, 9
36.000, 9
36.025, 9
36.050, 9
36.075,10
36.100,10
36.125, 9
36.150, 9
36.175,10
36.200, 8
36.225, 9
36.250, 9
36.275, 9
36.300, 9
36.325, 8
36.350, 9
36.375, 9
36.400, 9
36.425, 9
36.450, 9
36.475, 9
36.500, 9
36.525, 9
36.550, 9
36.575, 8
36.600, 8
36.625,10
36.650, 9
36.675, 9
36.700,10
36.725, 9
36.750,10
36.775, 9
36.800,10
36.825,10
36.850, 9
36.875,10
36.900, 9
36.925, 9
36.950, 9
36.975, 9
37.000, 9
37.025,10
37.050, 8
37.075, 9
37.100, 9
37.125, 9
37.150, 9
37.175, 9
37.200,11
37.225, 9
37.250,10
37.275,10
37.300,10
37.325,10
37.350,11
37.375,11
37.400,12
37.425,10
37.450,12
37.475,12
37.500,12
37.525,12
37.550,12
37.575,11
37.600,13
37.625,11
37.650,14
37.675,11
37.700,13
37.725,13
37.750,13
37.775,14
37.800,13
37.825,13
37.850,12
37.875,12
37.900,13
37.925,12
37.950,12
37.975,12
38.000,12
38.025,11
38.050,13
38.075,11
38.100,11
38.125, 9
38.150,10
38.175, 9
38.200,10
38.225, 9
38.250, 9
38.275, 9
38.300, 9
38.325, 8
38.350, 9
38.375, 9
38.400, 8
38.425, 8
38.450, 8
38.475, 8
38.500, 7
38.525, 8
38.550, 9
38.575, 7
38.600, 8
38.625, 7
38.650, 8
38.675, 9
38.700, 8
38.725, 8
38.750, 8
38.775, 8
38.800,10
38.825, 9
38.850, 9
38.875, 9
38.900,10
38.925,10
38.950,11
38.975,10
39.000,10
39.025,10
39.050, 8
39.075,10
39.100,10
39.125,10
39.150,11
39.175, 9
39.200,10
39.225,10
39.250, 9
39.275,11
39.300,12
39.325,13
39.350,12
39.375,12
39.400,15
39.425,15
39.450,16
39.475,18
39.500,16
39.525,16
39.550,19
39.575,18
39.600,18
39.625,17
39.650,17
39.675,18
39.700,14
39.725,16
39.750,15
39.775,12
39.800,12
39.825,11
39.850,10
39.875,10
39.900, 9
39.925,11
39.950, 9
39.975, 9
40.000, 8
40.025, 9
40.050, 8
40.075, 9
40.100, 8
40.125, 8
40.150, 9
40.175, 6
40.200, 7
40.225, 7
40.250, 7
40.275, 6
40.300, 6
40.325, 7
40.350, 7
40.375, 7
40.400, 6
40.425, 8
40.450, 6
40.475, 7
40.500, 7
40.525, 8
40.550, 6
40.575, 7
40.600, 7
40.625, 7
40.650, 6
40.675, 7
40.700, 6
40.725, 6
40.750, 6
40.775, 6
40.800, 6
40.825, 5
40.850, 7
40.875, 7
40.900, 6
40.925, 7
40.950, 6
40.975, 7
41.000, 7
41.025, 6
41.050, 8
41.075, 7
41.100, 6
41.125, 5
41.150, 7
41.175, 7
41.200, 7
41.225, 7
41.250, 7
41.275, 7
41.300, 7
41.325, 6
41.350, 7
41.375, 6
41.400, 7
41.425, 7
41.450, 7
41.475, 7
41.500, 8
41.525, 8
41.550, 7
41.575, 7
41.600, 8
41.625, 6
41.650, 8
41.675, 8
41.700, 9
41.725, 8
41.750, 8
41.775, 8
41.800, 8
41.825, 8
41.850, 9
41.875, 9
41.900, 8
41.925, 8
41.950, 8
41.975, 7
42.000, 7
42.025, 8
42.050, 8
42.075, 7
42.100, 7
42.125, 7
42.150, 7
42.175, 7
42.200, 7
42.225, 7
42.250, 7
42.275, 8
42.300, 7
42.325, 8
42.350, 7
42.375, 7
42.400, 8
42.425, 7
42.450, 6
42.475, 7
42.500, 7
42.525, 6
42.550, 7
42.575, 6
42.600, 7
42.625, 8
42.650, 7
42.675, 7
42.700, 8
42.725, 8
42.750, 7
42.775, 8
42.800, 6
42.825, 7
42.850, 9
42.875, 7
42.900, 7
42.925, 8
42.950, 8
42.975, 9
43.000, 9
43.025, 8
43.050, 8
43.075, 9
43.100, 9
43.125, 9
43.150, 9
43.175,10
43.200, 9
43.225, 9
43.250, 9
43.275, 9
43.300,10
43.325,12
43.350,10
43.375,10
43.400,11
43.425,12
43.450,12
43.475,11
43.500,12
43.525,12
43.550,11
43.575,14
43.600,11
43.625,13
43.650,12
43.675,14
43.700,13
43.725,14
43.750,15
43.775,14
43.800,14
43.825,13
43.850,14
43.875,13
43.900,13
43.925,12
43.950,13
43.975,11
44.000,13
44.025,12
44.050,13
44.075,12
44.100,10
44.125,11
44.150,11
44.175,10
44.200,10
44.225,10
44.250,11
44.275,11
44.300, 9
44.325,10
44.350, 9
44.375, 9
44.400,11
44.425, 9
44.450, 9
44.475, 8
44.500, 9
44.525, 8
44.550, 7
44.575, 8
44.600, 8
44.625, 9
44.650, 8
44.675, 8
44.700, 7
44.725, 8
44.750, 8
44.775, 8
44.800, 8
44.825, 8
44.850, 8
44.875, 8
44.900, 8
44.925, 7
44.950, 7
44.975, 8
45.000, 8
45.025, 9
45.050, 8
45.075, 7
45.100, 8
45.125, 9
45.150, 8
45.175, 8
45.200, 8
45.225, 7
45.250, 7
45.275, 7
45.300, 7
45.325, 7
45.350, 7
45.375, 7
45.400, 7
45.425, 6
45.450, 7
45.475, 7
45.500, 5
45.525, 7
45.550, 6
45.575, 6
45.600, 6
45.625, 7
45.650, 7
45.675, 6
45.700, 7
45.725, 6
45.750, 6
45.775, 7
45.800, 7
45.825, 7
45.850, 7
45.875, 7
45.900, 8
45.925, 7
45.950, 8
45.975, 6
46.000, 7
46.025, 9
46.050, 8
46.075, 9
46.100,10
46.125,10
46.150,10
46.175,11
46.200,12
46.225,14
46.250,13
46.275,12
46.300,15
46.325,14
46.350,14
46.375,16
46.400,16
46.425,15
46.450,15
46.475,14
46.500,15
46.525,14
46.550,14
46.575,13
46.600,13
46.625,14
46.650,12
46.675,12
46.700,11
46.725,10
46.750, 9
46.775, 8
46.800, 9
46.825, 8
46.850, 8
46.875, 8
46.900, 8
46.925, 7
46.950, 6
46.975, 6
47.000, 7
47.025, 7
47.050, 6
47.075, 6
47.100, 6
47.125, 7
47.150, 6
47.175, 6
47.200, 7
47.225, 7
47.250, 7
47.275, 7
47.300, 7
47.325, 6
47.350, 7
47.375, 8
47.400, 8
47.425, 8
47.450, 7
47.475, 7
47.500, 8
47.525, 7
47.550, 8
47.575,10
47.600,10
47.625,10
47.650, 9
47.675, 9
47.700, 9
47.725,10
47.750,12
47.775,10
47.800,11
47.825,10
47.850,11
47.875,11
47.900,10
47.925,10
47.950, 9
47.975,10
48.000, 9
48.025,10
48.050, 9
48.075,10
48.100, 8
48.125, 8
48.150, 9
48.175, 8
48.200, 9
48.225, 8
48.250, 8
48.275, 8
48.300, 8
48.325, 9
48.350, 8
48.375, 9
48.400, 7
48.425, 8
48.450, 7
48.475, 8
48.500, 7
48.525, 8
48.550, 7
48.575, 8
48.600, 6
48.625, 7
48.650, 6
48.675, 7
48.700, 6
48.725, 7
48.750, 6
48.775, 7
48.800, 8
48.825, 8
48.850, 6
48.875, 8
48.900, 9
48.925, 8
48.950, 9
48.975,10
49.000,10
49.025, 9
49.050,13
49.075,11
49.100,12
49.125,13
49.150,11
49.175,12
49.200,14
49.225,13
49.250,14
49.275,14
49.300,13
49.325,13
49.350,12
49.375,13
49.400,13
49.425,12
49.450,10
49.475,10
49.500,10
49.525, 9
49.550, 8
49.575, 9
49.600, 9
49.625, 9
49.650, 9
49.675, 9
49.700, 8
49.725, 8
49.750, 8
49.775, 7
49.800, 9
49.825, 7
49.850, 8
49.875, 8
49.900, 9
49.925, 8
49.950, 9
49.975, 9
50.000, 9
50.025, 9
50.050,11
50.075,11
50.100,11
50.125, 9
50.150,10
50.175,10
50.200,11
50.225,11
50.250,13
50.275,10
50.300,11
50.325, 9
50.350,11
50.375, 9
50.400, 9
50.425, 9
50.450, 9
50.475, 9
50.500, 9
50.525, 8
50.550, 8
50.575, 9
50.600, 8
50.625, 9
50.650, 8
50.675, 8
50.700, 8
50.725, 9
50.750, 9
50.775, 9
50.800,10
50.825,10
50.850,11
50.875,10
50.900,10
50.925,10
50.950,10
50.975,10
51.000,11
51.025,10
51.050,10
51.075,10
51.100,11
51.125,11
51.150,10
51.175, 9
51.200,10
51.225, 9
51.250,10
51.275,10
51.300,10
51.325, 9
51.350,10
51.375, 9
51.400, 8
51.425, 8
51.450, 8
51.475, 8
51.500, 9
51.525, 9
51.550,10
51.575,10
51.600, 9
51.625, 9
51.650,10
51.675,10
51.700,10
51.725, 9
51.750, 9
51.775,10
51.800, 9
51.825, 9
51.850, 9
51.875,10
51.900,10
51.925, 9
51.950, 8
51.975, 8
52.000, 8
52.025, 9
52.050, 9
52.075, 8
52.100, 8
52.125, 8
52.150, 8
52.175, 7
52.200, 6
52.225, 6
52.250, 7
52.275, 7
52.300, 7
52.325, 7
52.350, 7
52.375, 6
52.400, 7
52.425, 6
52.450, 7
52.475, 7
52.500, 7
52.525, 6
52.550, 6
52.575, 7
52.600, 7
52.625, 7
52.650, 7
52.675, 7
52.700, 8
52.725, 9
52.750, 7
52.775, 8
52.800, 9
52.825,10
52.850, 9
52.875,11
52.900, 9
52.925,10
52.950,10
52.975,11
53.000,10
53.025,11
53.050,11
53.075,11
53.100, 9
53.125,10
53.150, 9
53.175, 9
53.200, 8
53.225, 8
53.250,10
53.275, 8
53.300, 9
53.325, 9
53.350, 7
53.375, 8
53.400, 8
53.425, 8
53.450, 8
53.475, 8
53.500, 7
53.525, 8
53.550, 7
53.575, 8
53.600, 7
53.625, 8
53.650, 7
53.675, 7
53.700, 7
53.725, 7
53.750, 8
53.775, 8
53.800, 8
53.825, 9
53.850, 9
53.875, 8
53.900, 9
53.925,10
53.950, 8
53.975, 9
54.000, 9
54.025, 8
54.050, 8
54.075, 8
54.100, 9
54.125, 8
54.150, 9
54.175, 8
54.200, 7
54.225, 8
54.250, 8
54.275, 8
54.300, 7
54.325, 8
54.350, 8
54.375, 7
54.400, 8
54.425, 8
54.450, 8
54.475, 9
54.500, 8
54.525, 8
54.550, 9
54.575, 8
54.600, 8
54.625, 8
54.650, 9
54.675, 8
54.700, 9
54.725, 9
54.750,10
54.775, 8
54.800, 9
54.825, 9
54.850, 7
54.875, 8
54.900, 7
54.925, 9
54.950, 8
54.975,10
55.000,10
55.025, 8
55.050, 9
55.075, 9
55.100, 9
55.125, 9
55.150, 9
55.175, 9
55.200, 9
55.225, 8
55.250, 9
55.275,11
55.300,10
55.325,10
55.350,10
55.375,10
55.400,10
55.425,11
55.450, 9
55.475,10
55.500,10
55.525,11
55.550,10
55.575,10
55.600,10
55.625,10
55.650,11
55.675,12
55.700,10
55.725,10
55.750, 9
55.775,10
55.800,10
55.825, 9
55.850,10
55.875, 8
55.900,10
55.925, 9
55.950, 9
55.975, 8
56.000, 8
56.025, 8
56.050, 8
56.075, 8
56.100, 8
56.125, 7
56.150, 7
56.175, 7
56.200, 7
56.225, 8
56.250, 8
56.275, 9
56.300, 8
56.325, 8
56.350, 8
56.375, 8
56.400, 7
56.425, 8
56.450, 7
56.475, 7
56.500, 8
56.525, 8
56.550, 7
56.575, 6
56.600, 8
56.625, 7
56.650, 8
56.675, 8
56.700, 7
56.725, 7
56.750, 7
56.775, 7
56.800, 8
56.825, 7
56.850, 8
56.875, 8
56.900, 7
56.925, 6
56.950, 8
56.975, 6
57.000, 7
57.025, 7
57.050, 7
57.075, 7
57.100, 7
57.125, 7
57.150, 7
57.175, 7
57.200, 7
57.225, 6
57.250, 7
57.275, 5
57.300, 6
57.325, 7
57.350, 6
57.375, 7
57.400, 7
57.425, 6
57.450, 7
57.475, 6
57.500, 6
57.525, 6
57.550, 7
57.575, 6
57.600, 6
57.625, 7
57.650, 6
57.675, 7
57.700, 5
57.725, 6
57.750, 6
57.775, 6
57.800, 5
57.825, 6
57.850, 6
57.875, 6
57.900, 6
57.925, 6
57.950, 7
57.975, 6
58.000, 7
58.025, 7
58.050, 6
58.075, 6
58.100, 6
58.125, 5
58.150, 5
58.175, 7
58.200, 6
58.225, 6
58.250, 5
58.275, 7
58.300, 6
58.325, 5
58.350, 6
58.375, 5
58.400, 5
58.425, 6
58.450, 6
58.475, 6
58.500, 5
58.525, 6
58.550, 5
58.575, 6
58.600, 5
58.625, 5
58.650, 5
58.675, 5
58.700, 5
58.725, 6
58.750, 6
58.775, 5
58.800, 5
58.825, 4
58.850, 5
58.875, 4
58.900, 5
58.925, 4
58.950, 5
58.975, 6
59.000, 5
59.025, 4
59.050, 5
59.075, 5
59.100, 6
59.125, 5
59.150, 6
59.175, 4
59.200, 5
59.225, 5
59.250, 5
59.275, 5
59.300, 5
59.325, 5
59.350, 5
59.375, 6
59.400, 5
59.425, 7
59.450, 5
59.475, 5
59.500, 5
59.525, 6
59.550, 5
59.575, 5
59.600, 6
59.625, 4
59.650, 5
59.675, 6
59.700, 5
59.725, 6
59.750, 5
59.775, 6
59.800, 6
59.825, 6
59.850, 5
59.875, 6
59.900, 6
59.925, 6
59.950, 5
59.975, 6
60.000, 6
