[Measurement conditions]
Sample identification,
Comment - 1,"Configuration=Filmes Finos 19_1_2015, Owner=User-1, Creation date=19/01/2015 21:17:15"
Comment - 2,"Goniometer=PW3050/60 (Theta/Theta); Minimum step size 2Theta:0.001; Minimum step size Omega:0.001"
Comment - 3,"Sample stage=PW3071/xx Bracket"
Comment - 4,"Diffractometer system=XPERT-PRO"
Comment - 5,"Measurement program=C:\PANalytical\Data Collector\Programs\GrazingIncidence.xrdmp, Identifier={FDFF3DF9-3853-4573-8C07-D24AA8EB5C47}"
Anode material,Cu
K-Alpha1 wavelength,1.5405980
K-Alpha2 wavelength,1.5444260
Ratio K-Alpha2/K-Alpha1,0.500
Divergence slit,Fixed,0.10mm
Receiving slit,0.10
Monochromator used,YES
Generator voltage, 40
Tube current, 40
File date and time,22/Jan/2018 20:51
Unit cell,
h k l, 0 0 0
Scan axis,2Theta
Scan range,8.000,60.000
Scan step size,0.0250000
No. of points, 2081
Scan type,STEP
Omega,2.000
Time per step,20.000
[Scan points]
Angle,Intensity
8.000,104
8.025,97
8.050,98
8.075,99
8.100,102
8.125,100
8.150,103
8.175,102
8.200,95
8.225,102
8.250,100
8.275,101
8.300,93
8.325,96
8.350,98
8.375,98
8.400,100
8.425,95
8.450,95
8.475,96
8.500,94
8.525,95
8.550,96
8.575,93
8.600,94
8.625,92
8.650,93
8.675,93
8.700,94
8.725,95
8.750,92
8.775,92
8.800,89
8.825,88
8.850,91
8.875,91
8.900,92
8.925,90
8.950,90
8.975,91
9.000,92
9.025,92
9.050,91
9.075,94
9.100,86
9.125,90
9.150,91
9.175,91
9.200,86
9.225,90
9.250,91
9.275,89
9.300,91
9.325,91
9.350,96
9.375,91
9.400,90
9.425,92
9.450,90
9.475,88
9.500,90
9.525,88
9.550,90
9.575,89
9.600,90
9.625,86
9.650,86
9.675,88
9.700,86
9.725,81
9.750,86
9.775,83
9.800,83
9.825,85
9.850,87
9.875,86
9.900,87
9.925,84
9.950,81
9.975,84
10.000,85
10.025,81
10.050,82
10.075,81
10.100,79
10.125,83
10.150,82
10.175,81
10.200,81
10.225,83
10.250,78
10.275,82
10.300,82
10.325,79
10.350,79
10.375,77
10.400,83
10.425,79
10.450,78
10.475,79
10.500,81
10.525,79
10.550,80
10.575,78
10.600,79
10.625,80
10.650,81
10.675,74
10.700,77
10.725,78
10.750,73
10.775,73
10.800,78
10.825,80
10.850,76
10.875,80
10.900,77
10.925,77
10.950,75
10.975,76
11.000,77
11.025,80
11.050,77
11.075,79
11.100,76
11.125,73
11.150,72
11.175,78
11.200,73
11.225,76
11.250,75
11.275,76
11.300,71
11.325,74
11.350,75
11.375,76
11.400,74
11.425,72
11.450,72
11.475,75
11.500,73
11.525,70
11.550,70
11.575,75
11.600,72
11.625,72
11.650,71
11.675,71
11.700,70
11.725,73
11.750,75
11.775,71
11.800,75
11.825,71
11.850,72
11.875,68
11.900,72
11.925,70
11.950,73
11.975,71
12.000,70
12.025,71
12.050,72
12.075,73
12.100,70
12.125,72
12.150,72
12.175,74
12.200,70
12.225,69
12.250,71
12.275,72
12.300,71
12.325,70
12.350,70
12.375,72
12.400,69
12.425,71
12.450,71
12.475,69
12.500,71
12.525,69
12.550,69
12.575,70
12.600,67
12.625,68
12.650,70
12.675,68
12.700,64
12.725,71
12.750,69
12.775,67
12.800,68
12.825,67
12.850,67
12.875,69
12.900,65
12.925,68
12.950,69
12.975,68
13.000,68
13.025,65
13.050,65
13.075,67
13.100,65
13.125,66
13.150,66
13.175,66
13.200,67
13.225,68
13.250,63
13.275,64
13.300,66
13.325,65
13.350,64
13.375,65
13.400,67
13.425,68
13.450,68
13.475,65
13.500,63
13.525,64
13.550,66
13.575,67
13.600,68
13.625,67
13.650,65
13.675,62
13.700,63
13.725,62
13.750,64
13.775,66
13.800,63
13.825,67
13.850,62
13.875,64
13.900,62
13.925,68
13.950,64
13.975,65
14.000,61
14.025,61
14.050,63
14.075,63
14.100,63
14.125,62
14.150,65
14.175,63
14.200,62
14.225,58
14.250,63
14.275,60
14.300,61
14.325,59
14.350,64
14.375,63
14.400,61
14.425,63
14.450,56
14.475,62
14.500,62
14.525,59
14.550,61
14.575,60
14.600,59
14.625,62
14.650,60
14.675,61
14.700,60
14.725,63
14.750,59
14.775,60
14.800,59
14.825,58
14.850,59
14.875,58
14.900,60
14.925,55
14.950,59
14.975,60
15.000,56
15.025,57
15.050,61
15.075,59
15.100,59
15.125,59
15.150,57
15.175,60
15.200,56
15.225,59
15.250,60
15.275,55
15.300,59
15.325,59
15.350,60
15.375,62
15.400,56
15.425,55
15.450,56
15.475,60
15.500,58
15.525,61
15.550,60
15.575,57
15.600,55
15.625,59
15.650,58
15.675,56
15.700,57
15.725,57
15.750,56
15.775,58
15.800,58
15.825,55
15.850,55
15.875,56
15.900,58
15.925,56
15.950,56
15.975,57
16.000,56
16.025,56
16.050,58
16.075,55
16.100,56
16.125,60
16.150,55
16.175,52
16.200,57
16.225,55
16.250,55
16.275,57
16.300,55
16.325,56
16.350,56
16.375,54
16.400,58
16.425,56
16.450,54
16.475,53
16.500,57
16.525,54
16.550,55
16.575,56
16.600,56
16.625,57
16.650,56
16.675,55
16.700,57
16.725,56
16.750,57
16.775,57
16.800,56
16.825,55
16.850,56
16.875,57
16.900,55
16.925,55
16.950,55
16.975,55
17.000,53
17.025,54
17.050,55
17.075,54
17.100,56
17.125,56
17.150,53
17.175,56
17.200,54
17.225,58
17.250,54
17.275,54
17.300,54
17.325,52
17.350,51
17.375,53
17.400,54
17.425,56
17.450,55
17.475,53
17.500,54
17.525,51
17.550,54
17.575,54
17.600,55
17.625,54
17.650,51
17.675,52
17.700,55
17.725,52
17.750,54
17.775,51
17.800,54
17.825,50
17.850,54
17.875,51
17.900,50
17.925,52
17.950,52
17.975,50
18.000,52
18.025,51
18.050,52
18.075,53
18.100,55
18.125,52
18.150,50
18.175,49
18.200,51
18.225,51
18.250,49
18.275,52
18.300,50
18.325,53
18.350,52
18.375,52
18.400,52
18.425,52
18.450,52
18.475,50
18.500,52
18.525,54
18.550,51
18.575,50
18.600,50
18.625,52
18.650,51
18.675,49
18.700,51
18.725,49
18.750,51
18.775,50
18.800,52
18.825,53
18.850,48
18.875,50
18.900,51
18.925,51
18.950,49
18.975,51
19.000,48
19.025,52
19.050,50
19.075,49
19.100,50
19.125,49
19.150,51
19.175,49
19.200,49
19.225,46
19.250,50
19.275,48
19.300,50
19.325,48
19.350,50
19.375,51
19.400,48
19.425,51
19.450,47
19.475,46
19.500,43
19.525,48
19.550,51
19.575,47
19.600,48
19.625,49
19.650,48
19.675,49
19.700,50
19.725,48
19.750,46
19.775,47
19.800,48
19.825,50
19.850,47
19.875,45
19.900,49
19.925,49
19.950,46
19.975,49
20.000,49
20.025,43
20.050,48
20.075,47
20.100,46
20.125,46
20.150,44
20.175,45
20.200,44
20.225,44
20.250,45
20.275,43
20.300,48
20.325,46
20.350,47
20.375,45
20.400,47
20.425,43
20.450,45
20.475,43
20.500,46
20.525,44
20.550,46
20.575,46
20.600,42
20.625,45
20.650,44
20.675,41
20.700,46
20.725,46
20.750,42
20.775,44
20.800,43
20.825,44
20.850,44
20.875,44
20.900,45
20.925,46
20.950,42
20.975,43
21.000,44
21.025,41
21.050,44
21.075,43
21.100,44
21.125,46
21.150,46
21.175,43
21.200,45
21.225,44
21.250,47
21.275,50
21.300,48
21.325,49
21.350,47
21.375,46
21.400,46
21.425,50
21.450,44
21.475,47
21.500,44
21.525,45
21.550,41
21.575,44
21.600,40
21.625,42
21.650,39
21.675,41
21.700,42
21.725,39
21.750,40
21.775,38
21.800,41
21.825,43
21.850,41
21.875,39
21.900,37
21.925,39
21.950,40
21.975,40
22.000,41
22.025,40
22.050,41
22.075,40
22.100,42
22.125,42
22.150,39
22.175,38
22.200,39
22.225,40
22.250,38
22.275,40
22.300,40
22.325,40
22.350,40
22.375,37
22.400,37
22.425,41
22.450,39
22.475,40
22.500,38
22.525,38
22.550,40
22.575,36
22.600,38
22.625,40
22.650,37
22.675,41
22.700,39
22.725,41
22.750,35
22.775,41
22.800,37
22.825,38
22.850,38
22.875,38
22.900,37
22.925,35
22.950,35
22.975,38
23.000,36
23.025,35
23.050,37
23.075,37
23.100,35
23.125,35
23.150,36
23.175,38
23.200,35
23.225,39
23.250,39
23.275,34
23.300,36
23.325,38
23.350,33
23.375,36
23.400,34
23.425,36
23.450,36
23.475,36
23.500,35
23.525,33
23.550,35
23.575,35
23.600,34
23.625,36
23.650,35
23.675,36
23.700,35
23.725,35
23.750,36
23.775,32
23.800,34
23.825,34
23.850,37
23.875,36
23.900,35
23.925,33
23.950,36
23.975,32
24.000,33
24.025,33
24.050,33
24.075,35
24.100,36
24.125,33
24.150,32
24.175,32
24.200,32
24.225,32
24.250,34
24.275,31
24.300,35
24.325,34
24.350,32
24.375,31
24.400,34
24.425,32
24.450,32
24.475,34
24.500,31
24.525,32
24.550,32
24.575,32
24.600,29
24.625,32
24.650,31
24.675,31
24.700,32
24.725,31
24.750,30
24.775,30
24.800,32
24.825,34
24.850,32
24.875,30
24.900,33
24.925,31
24.950,30
24.975,31
25.000,33
25.025,33
25.050,31
25.075,31
25.100,31
25.125,33
25.150,33
25.175,30
25.200,29
25.225,29
25.250,30
25.275,32
25.300,28
25.325,28
25.350,28
25.375,29
25.400,29
25.425,32
25.450,31
25.475,29
25.500,30
25.525,29
25.550,29
25.575,30
25.600,31
25.625,30
25.650,29
25.675,30
25.700,30
25.725,31
25.750,31
25.775,27
25.800,33
25.825,31
25.850,28
25.875,29
25.900,29
25.925,29
25.950,29
25.975,28
26.000,28
26.025,28
26.050,27
26.075,31
26.100,26
26.125,25
26.150,27
26.175,29
26.200,28
26.225,28
26.250,27
26.275,28
26.300,26
26.325,27
26.350,27
26.375,27
26.400,25
26.425,26
26.450,27
26.475,29
26.500,26
26.525,28
26.550,27
26.575,28
26.600,26
26.625,26
26.650,26
26.675,26
26.700,27
26.725,29
26.750,26
26.775,27
26.800,26
26.825,27
26.850,26
26.875,26
26.900,26
26.925,24
26.950,25
26.975,26
27.000,23
27.025,26
27.050,26
27.075,26
27.100,24
27.125,26
27.150,26
27.175,25
27.200,26
27.225,26
27.250,26
27.275,23
27.300,27
27.325,24
27.350,23
27.375,24
27.400,25
27.425,25
27.450,25
27.475,26
27.500,23
27.525,23
27.550,22
27.575,23
27.600,27
27.625,23
27.650,25
27.675,26
27.700,26
27.725,25
27.750,25
27.775,25
27.800,23
27.825,24
27.850,23
27.875,25
27.900,24
27.925,24
27.950,25
27.975,24
28.000,23
28.025,24
28.050,23
28.075,23
28.100,24
28.125,22
28.150,25
28.175,25
28.200,23
28.225,23
28.250,23
28.275,20
28.300,23
28.325,24
28.350,24
28.375,24
28.400,24
28.425,25
28.450,22
28.475,22
28.500,21
28.525,24
28.550,23
28.575,23
28.600,23
28.625,24
28.650,23
28.675,23
28.700,23
28.725,23
28.750,22
28.775,20
28.800,25
28.825,24
28.850,23
28.875,22
28.900,23
28.925,23
28.950,25
28.975,23
29.000,22
29.025,23
29.050,24
29.075,22
29.100,24
29.125,26
29.150,24
29.175,25
29.200,22
29.225,24
29.250,21
29.275,23
29.300,22
29.325,23
29.350,24
29.375,24
29.400,23
29.425,24
29.450,21
29.475,24
29.500,24
29.525,23
29.550,23
29.575,25
29.600,23
29.625,23
29.650,24
29.675,23
29.700,24
29.725,21
29.750,24
29.775,23
29.800,21
29.825,23
29.850,22
29.875,21
29.900,21
29.925,22
29.950,22
29.975,21
30.000,22
30.025,22
30.050,23
30.075,21
30.100,23
30.125,21
30.150,23
30.175,22
30.200,20
30.225,20
30.250,22
30.275,22
30.300,22
30.325,21
30.350,20
30.375,22
30.400,21
30.425,23
30.450,23
30.475,22
30.500,25
30.525,22
30.550,24
30.575,24
30.600,22
30.625,21
30.650,21
30.675,21
30.700,23
30.725,21
30.750,20
30.775,20
30.800,20
30.825,20
30.850,21
30.875,20
30.900,23
30.925,20
30.950,19
30.975,22
31.000,19
31.025,20
31.050,21
31.075,21
31.100,21
31.125,21
31.150,19
31.175,20
31.200,20
31.225,22
31.250,22
31.275,20
31.300,21
31.325,22
31.350,21
31.375,21
31.400,21
31.425,22
31.450,20
31.475,19
31.500,21
31.525,21
31.550,19
31.575,19
31.600,21
31.625,19
31.650,19
31.675,18
31.700,19
31.725,19
31.750,18
31.775,18
31.800,20
31.825,18
31.850,19
31.875,19
31.900,20
31.925,18
31.950,19
31.975,20
32.000,20
32.025,18
32.050,20
32.075,18
32.100,17
32.125,20
32.150,19
32.175,18
32.200,18
32.225,18
32.250,18
32.275,19
32.300,19
32.325,18
32.350,15
32.375,18
32.400,17
32.425,18
32.450,18
32.475,17
32.500,18
32.525,18
32.550,18
32.575,17
32.600,16
32.625,15
32.650,17
32.675,16
32.700,17
32.725,15
32.750,17
32.775,14
32.800,15
32.825,15
32.850,17
32.875,17
32.900,16
32.925,18
32.950,16
32.975,17
33.000,16
33.025,14
33.050,15
33.075,14
33.100,15
33.125,16
33.150,14
33.175,14
33.200,15
33.225,14
33.250,14
33.275,16
33.300,13
33.325,14
33.350,13
33.375,15
33.400,15
33.425,15
33.450,15
33.475,13
33.500,14
33.525,14
33.550,14
33.575,12
33.600,14
33.625,14
33.650,14
33.675,12
33.700,13
33.725,14
33.750,13
33.775,15
33.800,14
33.825,14
33.850,14
33.875,14
33.900,13
33.925,15
33.950,13
33.975,13
34.000,12
34.025,14
34.050,13
34.075,13
34.100,12
34.125,13
34.150,13
34.175,13
34.200,13
34.225,12
34.250,13
34.275,14
34.300,12
34.325,14
34.350,12
34.375,13
34.400,11
34.425,13
34.450,11
34.475,12
34.500,13
34.525,11
34.550,12
34.575,11
34.600,11
34.625,13
34.650,12
34.675,14
34.700,13
34.725,12
34.750,13
34.775,11
34.800,12
34.825,11
34.850,12
34.875,11
34.900,11
34.925,12
34.950,12
34.975,13
35.000,12
35.025,13
35.050,11
35.075,12
35.100,11
35.125,10
35.150,11
35.175,10
35.200,12
35.225,12
35.250,12
35.275,11
35.300,11
35.325,12
35.350,12
35.375,12
35.400,11
35.425,10
35.450,11
35.475,11
35.500,10
35.525,11
35.550,12
35.575,11
35.600,11
35.625,10
35.650,10
35.675,11
35.700,10
35.725,11
35.750,10
35.775,10
35.800,10
35.825,12
35.850,10
35.875,10
35.900, 9
35.925,10
35.950,11
35.975,11
36.000,10
36.025,11
36.050,11
36.075,11
36.100,10
36.125,10
36.150,10
36.175,10
36.200, 9
36.225,11
36.250, 9
36.275,10
36.300,10
36.325,10
36.350, 9
36.375, 9
36.400, 8
36.425, 8
36.450,10
36.475,11
36.500, 9
36.525,10
36.550,11
36.575,10
36.600,10
36.625,11
36.650,10
36.675, 9
36.700,10
36.725,10
36.750,10
36.775,11
36.800,11
36.825,10
36.850,10
36.875,10
36.900,10
36.925, 9
36.950,10
36.975, 9
37.000, 9
37.025,11
37.050,10
37.075,10
37.100,10
37.125,10
37.150,10
37.175,11
37.200,10
37.225, 9
37.250,11
37.275, 9
37.300, 8
37.325, 9
37.350,10
37.375, 9
37.400,10
37.425,10
37.450,10
37.475,10
37.500, 9
37.525,10
37.550, 9
37.575, 9
37.600, 9
37.625,10
37.650, 9
37.675, 9
37.700,11
37.725,10
37.750,10
37.775,10
37.800, 9
37.825, 9
37.850,11
37.875,10
37.900, 9
37.925, 9
37.950, 9
37.975,10
38.000,10
38.025,11
38.050, 9
38.075,10
38.100, 9
38.125,10
38.150,10
38.175, 9
38.200, 9
38.225,10
38.250,10
38.275, 9
38.300,12
38.325,10
38.350,10
38.375, 8
38.400, 9
38.425, 9
38.450, 9
38.475, 9
38.500,10
38.525, 9
38.550, 9
38.575,10
38.600, 9
38.625, 9
38.650, 8
38.675,10
38.700,11
38.725, 9
38.750, 9
38.775, 9
38.800, 9
38.825,10
38.850, 8
38.875,10
38.900, 9
38.925,10
38.950, 9
38.975, 9
39.000, 9
39.025,10
39.050, 9
39.075, 9
39.100, 8
39.125,10
39.150,10
39.175,10
39.200,10
39.225,10
39.250,10
39.275,10
39.300, 8
39.325, 8
39.350, 9
39.375, 9
39.400, 9
39.425, 9
39.450,10
39.475,10
39.500, 9
39.525,11
39.550, 8
39.575, 9
39.600, 9
39.625, 9
39.650, 8
39.675, 8
39.700, 9
39.725, 9
39.750,10
39.775, 9
39.800, 9
39.825, 9
39.850, 8
39.875, 8
39.900, 9
39.925, 9
39.950, 9
39.975, 9
40.000, 9
40.025, 9
40.050, 9
40.075, 9
40.100, 9
40.125, 8
40.150, 9
40.175, 9
40.200, 9
40.225, 8
40.250, 8
40.275, 9
40.300,10
40.325,10
40.350,10
40.375, 9
40.400, 9
40.425, 7
40.450, 8
40.475,10
40.500, 9
40.525, 9
40.550, 9
40.575, 8
40.600, 9
40.625, 8
40.650,10
40.675,10
40.700, 8
40.725, 9
40.750, 8
40.775, 9
40.800, 9
40.825,10
40.850,11
40.875, 9
40.900, 9
40.925,10
40.950, 9
40.975, 9
41.000, 8
41.025, 9
41.050, 9
41.075, 9
41.100, 9
41.125,10
41.150,10
41.175, 9
41.200, 8
41.225, 8
41.250,10
41.275, 9
41.300, 9
41.325, 9
41.350,10
41.375, 8
41.400, 8
41.425,10
41.450, 9
41.475, 8
41.500, 9
41.525, 8
41.550, 9
41.575, 9
41.600, 8
41.625, 9
41.650, 8
41.675, 9
41.700, 8
41.725, 9
41.750, 9
41.775,10
41.800, 9
41.825, 9
41.850, 9
41.875, 9
41.900, 8
41.925, 8
41.950,10
41.975, 9
42.000, 9
42.025, 9
42.050, 9
42.075, 9
42.100, 8
42.125, 9
42.150, 8
42.175, 8
42.200, 9
42.225, 9
42.250, 8
42.275, 9
42.300, 7
42.325, 8
42.350, 9
42.375, 9
42.400,10
42.425, 8
42.450, 9
42.475, 9
42.500, 8
42.525, 9
42.550, 9
42.575, 8
42.600, 9
42.625,10
42.650, 8
42.675, 9
42.700, 9
42.725, 8
42.750, 9
42.775, 9
42.800, 9
42.825, 7
42.850, 8
42.875, 9
42.900, 8
42.925,10
42.950, 8
42.975, 9
43.000, 9
43.025, 9
43.050, 9
43.075, 9
43.100, 8
43.125, 8
43.150,10
43.175, 9
43.200, 9
43.225, 8
43.250, 9
43.275, 9
43.300, 8
43.325, 8
43.350, 8
43.375, 8
43.400,10
43.425,10
43.450, 9
43.475, 8
43.500, 9
43.525, 9
43.550,10
43.575, 8
43.600, 8
43.625, 9
43.650, 9
43.675, 9
43.700, 9
43.725,11
43.750,10
43.775, 8
43.800,10
43.825, 8
43.850, 9
43.875,10
43.900, 8
43.925, 8
43.950,10
43.975,10
44.000, 9
44.025, 9
44.050, 9
44.075, 8
44.100,10
44.125, 9
44.150, 9
44.175, 8
44.200, 9
44.225, 8
44.250, 9
44.275, 9
44.300, 9
44.325, 9
44.350,10
44.375, 9
44.400, 8
44.425, 8
44.450,10
44.475, 9
44.500, 8
44.525, 8
44.550, 9
44.575, 8
44.600, 9
44.625, 9
44.650, 7
44.675, 9
44.700, 9
44.725, 9
44.750, 8
44.775, 9
44.800, 8
44.825,10
44.850, 9
44.875, 9
44.900, 7
44.925,10
44.950, 7
44.975, 9
45.000, 9
45.025, 9
45.050, 9
45.075, 9
45.100, 9
45.125, 8
45.150, 8
45.175, 9
45.200, 8
45.225, 9
45.250, 8
45.275, 9
45.300, 9
45.325,10
45.350, 9
45.375, 9
45.400, 8
45.425, 9
45.450, 8
45.475, 8
45.500,10
45.525, 9
45.550, 8
45.575, 9
45.600, 8
45.625, 9
45.650,10
45.675, 9
45.700, 8
45.725, 8
45.750, 8
45.775,10
45.800, 9
45.825,10
45.850, 9
45.875, 8
45.900, 8
45.925, 9
45.950, 9
45.975, 9
46.000, 9
46.025, 8
46.050, 9
46.075, 9
46.100,10
46.125, 9
46.150, 9
46.175, 9
46.200,10
46.225, 8
46.250, 9
46.275,10
46.300, 9
46.325, 9
46.350, 9
46.375,10
46.400, 9
46.425, 9
46.450, 8
46.475, 9
46.500,10
46.525, 8
46.550, 9
46.575, 9
46.600,10
46.625, 9
46.650, 9
46.675, 8
46.700, 9
46.725,10
46.750, 9
46.775, 9
46.800, 9
46.825, 8
46.850, 8
46.875, 9
46.900, 9
46.925, 9
46.950, 8
46.975, 9
47.000, 9
47.025, 9
47.050, 8
47.075, 8
47.100, 9
47.125, 9
47.150, 8
47.175, 8
47.200, 8
47.225, 9
47.250, 7
47.275, 8
47.300, 8
47.325, 9
47.350, 9
47.375,10
47.400, 8
47.425, 9
47.450,10
47.475, 9
47.500,10
47.525, 9
47.550,11
47.575, 9
47.600, 8
47.625,10
47.650, 9
47.675, 8
47.700,10
47.725, 9
47.750, 8
47.775, 8
47.800, 9
47.825, 8
47.850, 9
47.875, 8
47.900,10
47.925, 8
47.950, 9
47.975, 9
48.000, 8
48.025,10
48.050, 9
48.075, 8
48.100, 9
48.125, 7
48.150, 9
48.175, 8
48.200, 9
48.225, 9
48.250, 9
48.275, 9
48.300,10
48.325, 8
48.350, 9
48.375, 9
48.400, 9
48.425, 9
48.450, 8
48.475, 9
48.500, 9
48.525,10
48.550, 8
48.575,10
48.600, 9
48.625, 9
48.650, 8
48.675,10
48.700, 8
48.725, 8
48.750, 9
48.775, 9
48.800, 8
48.825, 8
48.850, 8
48.875, 9
48.900, 9
48.925, 8
48.950, 9
48.975, 9
49.000, 9
49.025,10
49.050, 9
49.075,10
49.100, 9
49.125,10
49.150, 9
49.175,10
49.200, 9
49.225,11
49.250,10
49.275,10
49.300, 9
49.325, 9
49.350,10
49.375,10
49.400, 9
49.425, 7
49.450, 9
49.475,10
49.500, 8
49.525, 9
49.550, 8
49.575, 8
49.600,10
49.625, 9
49.650,10
49.675,10
49.700, 9
49.725,10
49.750, 8
49.775, 9
49.800, 8
49.825, 9
49.850, 9
49.875, 9
49.900, 9
49.925,10
49.950, 9
49.975, 9
50.000,10
50.025,10
50.050, 8
50.075, 9
50.100, 9
50.125, 9
50.150, 9
50.175, 8
50.200,10
50.225, 8
50.250, 9
50.275, 9
50.300, 9
50.325, 9
50.350, 8
50.375, 9
50.400, 9
50.425,10
50.450, 9
50.475, 9
50.500, 9
50.525, 9
50.550,10
50.575, 8
50.600,10
50.625, 8
50.650,10
50.675, 8
50.700, 9
50.725, 9
50.750,10
50.775, 9
50.800,10
50.825, 9
50.850, 8
50.875, 9
50.900, 9
50.925, 8
50.950, 8
50.975,10
51.000, 8
51.025, 9
51.050, 9
51.075, 9
51.100,10
51.125, 9
51.150, 9
51.175, 9
51.200, 9
51.225, 9
51.250,10
51.275, 8
51.300,10
51.325,10
51.350, 9
51.375, 9
51.400,10
51.425,10
51.450, 9
51.475,10
51.500, 9
51.525, 8
51.550, 8
51.575,10
51.600, 9
51.625, 9
51.650,10
51.675,10
51.700,10
51.725,10
51.750,10
51.775, 9
51.800, 9
51.825, 9
51.850,10
51.875, 9
51.900, 9
51.925,10
51.950,10
51.975, 9
52.000,11
52.025, 9
52.050,10
52.075,10
52.100, 9
52.125, 8
52.150,11
52.175,12
52.200, 9
52.225,10
52.250, 9
52.275, 9
52.300,10
52.325,10
52.350, 9
52.375,10
52.400,11
52.425, 9
52.450,10
52.475,11
52.500,10
52.525,11
52.550, 9
52.575,11
52.600,11
52.625,10
52.650,10
52.675,11
52.700,12
52.725,12
52.750,11
52.775,11
52.800,11
52.825,11
52.850,10
52.875,12
52.900,12
52.925,10
52.950,12
52.975,11
53.000,12
53.025,11
53.050,12
53.075,12
53.100,13
53.125,12
53.150,11
53.175,13
53.200,12
53.225,13
53.250,13
53.275,12
53.300,12
53.325,12
53.350,13
53.375,11
53.400,13
53.425,12
53.450,13
53.475,13
53.500,12
53.525,13
53.550,13
53.575,13
53.600,13
53.625,13
53.650,13
53.675,13
53.700,14
53.725,13
53.750,13
53.775,13
53.800,15
53.825,15
53.850,15
53.875,16
53.900,15
53.925,15
53.950,15
53.975,15
54.000,14
54.025,15
54.050,15
54.075,16
54.100,16
54.125,16
54.150,18
54.175,16
54.200,18
54.225,16
54.250,17
54.275,17
54.300,17
54.325,17
54.350,16
54.375,19
54.400,20
54.425,20
54.450,24
54.475,46
54.500,108
54.525,167
54.550,208
54.575,219
54.600,212
54.625,204
54.650,193
54.675,177
54.700,167
54.725,164
54.750,148
54.775,125
54.800,108
54.825,85
54.850,74
54.875,60
54.900,50
54.925,47
54.950,39
54.975,35
55.000,32
55.025,32
55.050,32
55.075,32
55.100,34
55.125,36
55.150,37
55.175,38
55.200,45
55.225,46
55.250,53
55.275,58
55.300,68
55.325,80
55.350,89
55.375,96
55.400,101
55.425,106
55.450,100
55.475,98
55.500,90
55.525,86
55.550,85
55.575,78
55.600,77
55.625,73
55.650,69
55.675,72
55.700,71
55.725,70
55.750,74
55.775,73
55.800,73
55.825,75
55.850,73
55.875,76
55.900,73
55.925,80
55.950,76
55.975,74
56.000,78
56.025,74
56.050,73
56.075,70
56.100,68
56.125,68
56.150,66
56.175,62
56.200,62
56.225,57
56.250,56
56.275,58
56.300,54
56.325,52
56.350,51
56.375,46
56.400,46
56.425,49
56.450,45
56.475,43
56.500,41
56.525,40
56.550,39
56.575,37
56.600,36
56.625,34
56.650,37
56.675,33
56.700,31
56.725,30
56.750,29
56.775,28
56.800,30
56.825,29
56.850,28
56.875,27
56.900,24
56.925,26
56.950,27
56.975,25
57.000,25
57.025,23
57.050,22
57.075,21
57.100,21
57.125,20
57.150,20
57.175,20
57.200,20
57.225,19
57.250,18
57.275,19
57.300,18
57.325,19
57.350,18
57.375,18
57.400,19
57.425,18
57.450,18
57.475,16
57.500,16
57.525,15
57.550,16
57.575,15
57.600,15
57.625,15
57.650,16
57.675,15
57.700,14
57.725,14
57.750,15
57.775,14
57.800,15
57.825,13
57.850,12
57.875,12
57.900,14
57.925,14
57.950,13
57.975,12
58.000,13
58.025,14
58.050,11
58.075,12
58.100,11
58.125,11
58.150,11
58.175,11
58.200,11
58.225,11
58.250,12
58.275,11
58.300,11
58.325,11
58.350,12
58.375,11
58.400,10
58.425,11
58.450,10
58.475,10
58.500,12
58.525,11
58.550,11
58.575, 9
58.600,10
58.625,10
58.650, 9
58.675, 9
58.700,11
58.725, 9
58.750, 8
58.775,10
58.800,10
58.825,10
58.850,10
58.875, 9
58.900, 9
58.925,10
58.950, 9
58.975, 9
59.000,10
59.025, 8
59.050, 9
59.075, 9
59.100, 9
59.125,10
59.150, 8
59.175, 9
59.200, 8
59.225, 8
59.250,10
59.275, 8
59.300, 8
59.325, 9
59.350, 8
59.375, 8
59.400, 8
59.425, 9
59.450, 8
59.475, 7
59.500, 7
59.525, 7
59.550, 8
59.575, 9
59.600, 7
59.625, 8
59.650, 7
59.675, 6
59.700, 8
59.725, 7
59.750, 6
59.775, 7
59.800, 8
59.825, 8
59.850, 7
59.875, 8
59.900, 7
59.925, 7
59.950, 8
59.975, 7
60.000, 8
