[Measurement conditions]
Sample identification,
Comment - 1,"Configuration=Filmes Finos 19_1_2015, Owner=User-1, Creation date=19/01/2015 21:17:15"
Comment - 2,"Goniometer=PW3050/60 (Theta/Theta); Minimum step size 2Theta:0.001; Minimum step size Omega:0.001"
Comment - 3,"Sample stage=PW3071/xx Bracket"
Comment - 4,"Diffractometer system=XPERT-PRO"
Comment - 5,"Measurement program=C:\PANalytical\Data Collector\Programs\GrazingIncidence.xrdmp, Identifier={1B0B265C-F63A-42C6-ADDC-A5C5FE219C86}"
Anode material,Cu
K-Alpha1 wavelength,1.5405980
K-Alpha2 wavelength,1.5444260
Ratio K-Alpha2/K-Alpha1,0.500
Divergence slit,Fixed,0.10mm
Receiving slit,0.10
Monochromator used,YES
Generator voltage, 40
Tube current, 40
File date and time,31/Jan/2018 11:48
Unit cell,
h k l, 0 0 0
Scan axis,2Theta
Scan range,15.000,55.000
Scan step size,0.0250000
No. of points, 1601
Scan type,STEP
Omega,2.000
Time per step,10.000
[Scan points]
Angle,Intensity
15.000,44
15.025,47
15.050,45
15.075,48
15.100,43
15.125,47
15.150,46
15.175,42
15.200,47
15.225,44
15.250,43
15.275,45
15.300,45
15.325,43
15.350,46
15.375,49
15.400,42
15.425,44
15.450,44
15.475,46
15.500,44
15.525,47
15.550,43
15.575,45
15.600,45
15.625,43
15.650,40
15.675,47
15.700,46
15.725,41
15.750,45
15.775,43
15.800,43
15.825,45
15.850,42
15.875,43
15.900,42
15.925,47
15.950,45
15.975,41
16.000,42
16.025,42
16.050,47
16.075,46
16.100,46
16.125,44
16.150,43
16.175,42
16.200,37
16.225,41
16.250,42
16.275,46
16.300,40
16.325,42
16.350,41
16.375,43
16.400,40
16.425,41
16.450,42
16.475,39
16.500,39
16.525,43
16.550,45
16.575,41
16.600,44
16.625,37
16.650,42
16.675,42
16.700,42
16.725,38
16.750,39
16.775,41
16.800,39
16.825,38
16.850,38
16.875,38
16.900,40
16.925,41
16.950,45
16.975,45
17.000,42
17.025,38
17.050,41
17.075,39
17.100,39
17.125,38
17.150,41
17.175,39
17.200,37
17.225,36
17.250,36
17.275,40
17.300,40
17.325,36
17.350,40
17.375,37
17.400,41
17.425,35
17.450,40
17.475,38
17.500,38
17.525,39
17.550,38
17.575,37
17.600,39
17.625,39
17.650,35
17.675,38
17.700,39
17.725,38
17.750,35
17.775,39
17.800,34
17.825,37
17.850,39
17.875,39
17.900,39
17.925,41
17.950,38
17.975,34
18.000,39
18.025,37
18.050,38
18.075,37
18.100,36
18.125,35
18.150,37
18.175,36
18.200,39
18.225,37
18.250,37
18.275,39
18.300,35
18.325,40
18.350,35
18.375,38
18.400,37
18.425,36
18.450,37
18.475,35
18.500,34
18.525,36
18.550,39
18.575,36
18.600,35
18.625,35
18.650,41
18.675,34
18.700,36
18.725,35
18.750,35
18.775,34
18.800,39
18.825,38
18.850,36
18.875,37
18.900,37
18.925,39
18.950,36
18.975,33
19.000,38
19.025,32
19.050,34
19.075,36
19.100,36
19.125,37
19.150,37
19.175,35
19.200,36
19.225,36
19.250,36
19.275,35
19.300,36
19.325,34
19.350,36
19.375,35
19.400,33
19.425,31
19.450,34
19.475,35
19.500,33
19.525,36
19.550,35
19.575,35
19.600,35
19.625,35
19.650,39
19.675,36
19.700,32
19.725,34
19.750,37
19.775,36
19.800,37
19.825,33
19.850,34
19.875,32
19.900,35
19.925,33
19.950,34
19.975,31
20.000,34
20.025,38
20.050,34
20.075,33
20.100,31
20.125,34
20.150,37
20.175,31
20.200,35
20.225,32
20.250,34
20.275,34
20.300,34
20.325,29
20.350,33
20.375,34
20.400,32
20.425,31
20.450,31
20.475,31
20.500,35
20.525,35
20.550,34
20.575,33
20.600,31
20.625,33
20.650,33
20.675,33
20.700,33
20.725,34
20.750,32
20.775,32
20.800,31
20.825,33
20.850,32
20.875,31
20.900,32
20.925,35
20.950,33
20.975,31
21.000,33
21.025,34
21.050,31
21.075,28
21.100,32
21.125,31
21.150,31
21.175,34
21.200,31
21.225,26
21.250,30
21.275,27
21.300,34
21.325,31
21.350,32
21.375,31
21.400,28
21.425,31
21.450,30
21.475,31
21.500,27
21.525,29
21.550,29
21.575,27
21.600,29
21.625,28
21.650,31
21.675,30
21.700,31
21.725,28
21.750,32
21.775,31
21.800,29
21.825,27
21.850,28
21.875,30
21.900,32
21.925,30
21.950,32
21.975,29
22.000,29
22.025,33
22.050,29
22.075,29
22.100,31
22.125,27
22.150,29
22.175,29
22.200,32
22.225,27
22.250,32
22.275,25
22.300,29
22.325,26
22.350,28
22.375,29
22.400,31
22.425,25
22.450,29
22.475,30
22.500,27
22.525,28
22.550,28
22.575,31
22.600,28
22.625,29
22.650,26
22.675,27
22.700,28
22.725,29
22.750,27
22.775,28
22.800,26
22.825,26
22.850,32
22.875,27
22.900,29
22.925,24
22.950,26
22.975,24
23.000,26
23.025,24
23.050,24
23.075,26
23.100,24
23.125,27
23.150,26
23.175,24
23.200,24
23.225,25
23.250,27
23.275,26
23.300,25
23.325,25
23.350,22
23.375,23
23.400,27
23.425,25
23.450,26
23.475,26
23.500,27
23.525,28
23.550,25
23.575,27
23.600,21
23.625,26
23.650,24
23.675,25
23.700,22
23.725,24
23.750,23
23.775,27
23.800,24
23.825,22
23.850,23
23.875,23
23.900,23
23.925,24
23.950,24
23.975,21
24.000,22
24.025,24
24.050,27
24.075,22
24.100,22
24.125,23
24.150,21
24.175,23
24.200,21
24.225,21
24.250,24
24.275,22
24.300,23
24.325,24
24.350,22
24.375,25
24.400,20
24.425,19
24.450,21
24.475,23
24.500,21
24.525,24
24.550,22
24.575,21
24.600,21
24.625,22
24.650,21
24.675,22
24.700,21
24.725,23
24.750,23
24.775,21
24.800,20
24.825,21
24.850,19
24.875,23
24.900,19
24.925,18
24.950,21
24.975,22
25.000,19
25.025,21
25.050,20
25.075,21
25.100,21
25.125,19
25.150,20
25.175,19
25.200,22
25.225,19
25.250,20
25.275,18
25.300,20
25.325,20
25.350,21
25.375,21
25.400,22
25.425,19
25.450,20
25.475,18
25.500,21
25.525,18
25.550,20
25.575,18
25.600,20
25.625,19
25.650,22
25.675,19
25.700,17
25.725,18
25.750,19
25.775,17
25.800,17
25.825,19
25.850,17
25.875,17
25.900,19
25.925,18
25.950,17
25.975,19
26.000,18
26.025,19
26.050,20
26.075,18
26.100,15
26.125,17
26.150,18
26.175,20
26.200,17
26.225,17
26.250,19
26.275,18
26.300,19
26.325,21
26.350,17
26.375,16
26.400,18
26.425,19
26.450,15
26.475,16
26.500,16
26.525,17
26.550,17
26.575,17
26.600,17
26.625,15
26.650,16
26.675,17
26.700,14
26.725,14
26.750,16
26.775,16
26.800,16
26.825,18
26.850,17
26.875,14
26.900,15
26.925,17
26.950,17
26.975,16
27.000,17
27.025,15
27.050,17
27.075,16
27.100,20
27.125,15
27.150,16
27.175,17
27.200,17
27.225,16
27.250,16
27.275,18
27.300,15
27.325,14
27.350,16
27.375,20
27.400,16
27.425,16
27.450,18
27.475,16
27.500,16
27.525,13
27.550,15
27.575,13
27.600,13
27.625,17
27.650,13
27.675,15
27.700,14
27.725,16
27.750,15
27.775,15
27.800,15
27.825,14
27.850,14
27.875,15
27.900,15
27.925,15
27.950,14
27.975,15
28.000,14
28.025,17
28.050,16
28.075,15
28.100,14
28.125,15
28.150,16
28.175,16
28.200,13
28.225,15
28.250,13
28.275,15
28.300,14
28.325,14
28.350,14
28.375,14
28.400,13
28.425,14
28.450,16
28.475,12
28.500,16
28.525,15
28.550,14
28.575,13
28.600,13
28.625,16
28.650,14
28.675,16
28.700,13
28.725,14
28.750,13
28.775,13
28.800,15
28.825,13
28.850,14
28.875,13
28.900,12
28.925,13
28.950,14
28.975,13
29.000,12
29.025,16
29.050,15
29.075,13
29.100,13
29.125,12
29.150,14
29.175,13
29.200,12
29.225,12
29.250,12
29.275,11
29.300,14
29.325,12
29.350,12
29.375,13
29.400,13
29.425,11
29.450,12
29.475,11
29.500,10
29.525,13
29.550,14
29.575,12
29.600,14
29.625,15
29.650,12
29.675,14
29.700,11
29.725,15
29.750,12
29.775,14
29.800,13
29.825,13
29.850,11
29.875,12
29.900,14
29.925,14
29.950,15
29.975,13
30.000,13
30.025,12
30.050,11
30.075,12
30.100,13
30.125,13
30.150,12
30.175,13
30.200,11
30.225,13
30.250,13
30.275,13
30.300,12
30.325,11
30.350,13
30.375,11
30.400,12
30.425,11
30.450,11
30.475,11
30.500,12
30.525,12
30.550,12
30.575,10
30.600,10
30.625,12
30.650,12
30.675,14
30.700,12
30.725,13
30.750,13
30.775,12
30.800,11
30.825,13
30.850,13
30.875,11
30.900,11
30.925,11
30.950,10
30.975,12
31.000,11
31.025,15
31.050,11
31.075, 9
31.100,14
31.125,12
31.150,10
31.175,14
31.200,11
31.225,12
31.250,12
31.275,13
31.300,12
31.325, 9
31.350,10
31.375,12
31.400,10
31.425,11
31.450,11
31.475,11
31.500, 9
31.525, 9
31.550,11
31.575, 9
31.600,10
31.625,11
31.650,11
31.675,11
31.700,11
31.725,13
31.750,10
31.775,10
31.800,10
31.825,10
31.850, 9
31.875, 9
31.900,12
31.925, 9
31.950,11
31.975, 9
32.000,10
32.025,11
32.050,11
32.075,12
32.100,11
32.125, 8
32.150,10
32.175,10
32.200,10
32.225,11
32.250,10
32.275,10
32.300,10
32.325,11
32.350,10
32.375,10
32.400, 9
32.425,10
32.450,11
32.475,10
32.500,10
32.525, 9
32.550, 9
32.575, 8
32.600,10
32.625, 9
32.650, 9
32.675,10
32.700,10
32.725,10
32.750,10
32.775,10
32.800,10
32.825, 9
32.850, 8
32.875, 9
32.900,10
32.925,11
32.950, 9
32.975, 9
33.000, 9
33.025, 9
33.050, 8
33.075, 8
33.100, 8
33.125,10
33.150, 8
33.175,10
33.200,10
33.225, 9
33.250, 8
33.275,10
33.300,10
33.325, 8
33.350, 7
33.375,10
33.400, 8
33.425,10
33.450, 8
33.475,11
33.500,11
33.525,11
33.550,10
33.575,10
33.600, 9
33.625,10
33.650, 7
33.675, 8
33.700, 9
33.725,10
33.750, 8
33.775,10
33.800, 7
33.825, 9
33.850,10
33.875, 7
33.900, 9
33.925, 9
33.950, 8
33.975, 9
34.000, 8
34.025, 9
34.050, 9
34.075, 9
34.100, 9
34.125, 9
34.150, 8
34.175, 9
34.200, 9
34.225,10
34.250, 9
34.275,10
34.300, 9
34.325, 8
34.350, 8
34.375, 8
34.400, 8
34.425, 8
34.450, 9
34.475, 9
34.500, 8
34.525, 8
34.550,10
34.575, 8
34.600, 9
34.625, 8
34.650, 9
34.675, 8
34.700, 9
34.725, 8
34.750, 9
34.775, 9
34.800, 7
34.825, 9
34.850, 9
34.875, 8
34.900, 7
34.925, 9
34.950,10
34.975, 8
35.000, 8
35.025, 8
35.050, 8
35.075, 7
35.100, 9
35.125, 8
35.150, 6
35.175, 8
35.200, 8
35.225, 9
35.250, 7
35.275, 8
35.300, 8
35.325, 8
35.350,10
35.375, 7
35.400, 6
35.425, 8
35.450, 8
35.475, 8
35.500, 8
35.525, 9
35.550, 8
35.575, 9
35.600, 7
35.625, 8
35.650, 7
35.675, 8
35.700, 8
35.725, 7
35.750, 9
35.775, 6
35.800, 7
35.825, 8
35.850, 8
35.875, 6
35.900, 9
35.925, 8
35.950, 9
35.975, 8
36.000, 8
36.025, 8
36.050,10
36.075, 9
36.100, 8
36.125, 8
36.150, 8
36.175, 9
36.200, 8
36.225, 7
36.250, 8
36.275, 8
36.300, 9
36.325, 9
36.350, 8
36.375, 8
36.400, 9
36.425, 7
36.450, 6
36.475, 8
36.500, 8
36.525, 8
36.550, 9
36.575, 9
36.600, 7
36.625, 9
36.650,10
36.675, 8
36.700,10
36.725,10
36.750,10
36.775,10
36.800,12
36.825, 9
36.850,11
36.875,11
36.900,10
36.925,11
36.950,11
36.975,10
37.000,12
37.025,13
37.050,13
37.075,12
37.100,13
37.125,10
37.150,11
37.175,10
37.200,10
37.225,10
37.250,10
37.275,10
37.300,11
37.325,10
37.350,12
37.375, 8
37.400,10
37.425,11
37.450, 9
37.475, 8
37.500, 7
37.525, 7
37.550, 8
37.575, 9
37.600, 9
37.625, 7
37.650, 8
37.675, 9
37.700, 9
37.725, 8
37.750, 7
37.775, 7
37.800, 7
37.825, 8
37.850, 6
37.875, 8
37.900, 8
37.925, 7
37.950, 6
37.975, 9
38.000, 7
38.025, 8
38.050, 8
38.075, 7
38.100, 7
38.125, 7
38.150, 6
38.175, 7
38.200, 6
38.225, 6
38.250, 7
38.275, 7
38.300, 7
38.325, 7
38.350, 8
38.375, 7
38.400, 6
38.425, 6
38.450, 8
38.475, 5
38.500, 6
38.525, 6
38.550, 6
38.575, 6
38.600, 6
38.625, 6
38.650, 7
38.675, 6
38.700, 7
38.725, 6
38.750, 7
38.775, 8
38.800, 7
38.825, 5
38.850, 6
38.875, 6
38.900, 6
38.925, 5
38.950, 6
38.975, 5
39.000, 6
39.025, 7
39.050, 8
39.075, 6
39.100, 7
39.125, 6
39.150, 7
39.175, 6
39.200, 6
39.225, 5
39.250, 7
39.275, 4
39.300, 6
39.325, 7
39.350, 7
39.375, 5
39.400, 6
39.425, 5
39.450, 7
39.475, 6
39.500, 7
39.525, 5
39.550, 7
39.575, 6
39.600, 7
39.625, 7
39.650, 5
39.675, 6
39.700, 5
39.725, 6
39.750, 6
39.775, 6
39.800, 7
39.825, 6
39.850, 7
39.875, 5
39.900, 7
39.925, 5
39.950, 7
39.975, 6
40.000, 5
40.025, 6
40.050, 4
40.075, 6
40.100, 6
40.125, 7
40.150, 7
40.175, 5
40.200, 7
40.225, 6
40.250, 7
40.275, 5
40.300, 5
40.325, 6
40.350, 6
40.375, 7
40.400, 6
40.425, 6
40.450, 7
40.475, 6
40.500, 4
40.525, 6
40.550, 6
40.575, 5
40.600, 6
40.625, 6
40.650, 7
40.675, 7
40.700, 6
40.725, 5
40.750, 7
40.775, 5
40.800, 5
40.825, 6
40.850, 6
40.875, 5
40.900, 6
40.925, 5
40.950, 7
40.975, 5
41.000, 5
41.025, 7
41.050, 6
41.075, 6
41.100, 7
41.125, 7
41.150, 7
41.175, 4
41.200, 5
41.225, 7
41.250, 7
41.275, 6
41.300, 5
41.325, 7
41.350, 6
41.375, 5
41.400, 6
41.425, 7
41.450, 5
41.475, 6
41.500, 7
41.525, 6
41.550, 8
41.575, 6
41.600, 6
41.625, 6
41.650, 6
41.675, 7
41.700, 5
41.725, 6
41.750, 6
41.775, 7
41.800, 6
41.825, 6
41.850, 7
41.875, 6
41.900, 6
41.925, 6
41.950, 7
41.975, 5
42.000, 8
42.025, 7
42.050, 6
42.075, 7
42.100, 6
42.125, 7
42.150, 8
42.175, 8
42.200, 6
42.225, 8
42.250, 5
42.275, 6
42.300, 8
42.325, 8
42.350, 7
42.375, 6
42.400, 7
42.425, 8
42.450, 8
42.475, 7
42.500,10
42.525, 8
42.550, 8
42.575,10
42.600, 9
42.625,10
42.650, 7
42.675, 8
42.700, 9
42.725,10
42.750, 8
42.775,10
42.800, 8
42.825, 9
42.850,11
42.875,10
42.900, 9
42.925,11
42.950,12
42.975,10
43.000,11
43.025,14
43.050,12
43.075,12
43.100,10
43.125,11
43.150,12
43.175,11
43.200,12
43.225,12
43.250,11
43.275,10
43.300,10
43.325,10
43.350,10
43.375,11
43.400,10
43.425,11
43.450,11
43.475,11
43.500,10
43.525,10
43.550,10
43.575, 9
43.600, 8
43.625,11
43.650,11
43.675, 9
43.700, 9
43.725, 8
43.750, 8
43.775, 9
43.800, 9
43.825, 8
43.850, 8
43.875, 8
43.900, 7
43.925, 7
43.950, 9
43.975, 9
44.000, 6
44.025, 8
44.050, 7
44.075, 7
44.100, 7
44.125, 8
44.150, 7
44.175, 6
44.200, 7
44.225, 8
44.250, 6
44.275, 6
44.300, 6
44.325, 5
44.350, 7
44.375, 6
44.400, 6
44.425, 6
44.450, 7
44.475, 7
44.500, 6
44.525, 8
44.550, 7
44.575, 6
44.600, 6
44.625, 6
44.650, 8
44.675, 6
44.700, 5
44.725, 5
44.750, 7
44.775, 7
44.800, 6
44.825, 5
44.850, 6
44.875, 6
44.900, 5
44.925, 7
44.950, 7
44.975, 5
45.000, 6
45.025, 6
45.050, 5
45.075, 5
45.100, 6
45.125, 6
45.150, 5
45.175, 6
45.200, 7
45.225, 6
45.250, 6
45.275, 5
45.300, 5
45.325, 7
45.350, 5
45.375, 6
45.400, 6
45.425, 6
45.450, 5
45.475, 5
45.500, 5
45.525, 5
45.550, 6
45.575, 5
45.600, 7
45.625, 6
45.650, 7
45.675, 6
45.700, 7
45.725, 5
45.750, 5
45.775, 6
45.800, 6
45.825, 5
45.850, 6
45.875, 5
45.900, 6
45.925, 8
45.950, 6
45.975, 5
46.000, 6
46.025, 6
46.050, 6
46.075, 6
46.100, 7
46.125, 4
46.150, 5
46.175, 5
46.200, 5
46.225, 5
46.250, 7
46.275, 6
46.300, 6
46.325, 6
46.350, 7
46.375, 7
46.400, 6
46.425, 6
46.450, 5
46.475, 5
46.500, 5
46.525, 6
46.550, 5
46.575, 5
46.600, 5
46.625, 7
46.650, 6
46.675, 5
46.700, 6
46.725, 5
46.750, 6
46.775, 7
46.800, 5
46.825, 4
46.850, 5
46.875, 5
46.900, 5
46.925, 6
46.950, 6
46.975, 6
47.000, 6
47.025, 6
47.050, 5
47.075, 7
47.100, 6
47.125, 7
47.150, 5
47.175, 6
47.200, 6
47.225, 7
47.250, 6
47.275, 6
47.300, 6
47.325, 6
47.350, 5
47.375, 5
47.400, 6
47.425, 6
47.450, 4
47.475, 6
47.500, 7
47.525, 6
47.550, 6
47.575, 6
47.600, 6
47.625, 6
47.650, 5
47.675, 6
47.700, 4
47.725, 5
47.750, 5
47.775, 6
47.800, 6
47.825, 7
47.850, 5
47.875, 7
47.900, 6
47.925, 6
47.950, 5
47.975, 6
48.000, 6
48.025, 5
48.050, 5
48.075, 6
48.100, 5
48.125, 5
48.150, 7
48.175, 6
48.200, 5
48.225, 5
48.250, 6
48.275, 6
48.300, 4
48.325, 6
48.350, 6
48.375, 5
48.400, 6
48.425, 5
48.450, 6
48.475, 6
48.500, 5
48.525, 5
48.550, 6
48.575, 6
48.600, 6
48.625, 5
48.650, 6
48.675, 6
48.700, 7
48.725, 6
48.750, 6
48.775, 5
48.800, 7
48.825, 5
48.850, 4
48.875, 6
48.900, 6
48.925, 5
48.950, 5
48.975, 7
49.000, 5
49.025, 6
49.050, 6
49.075, 7
49.100, 5
49.125, 6
49.150, 5
49.175, 6
49.200, 5
49.225, 5
49.250, 6
49.275, 6
49.300, 5
49.325, 5
49.350, 5
49.375, 8
49.400, 5
49.425, 5
49.450, 5
49.475, 6
49.500, 5
49.525, 6
49.550, 6
49.575, 6
49.600, 7
49.625, 6
49.650, 5
49.675, 5
49.700, 7
49.725, 7
49.750, 6
49.775, 6
49.800, 6
49.825, 7
49.850, 6
49.875, 5
49.900, 7
49.925, 6
49.950, 6
49.975, 6
50.000, 6
50.025, 6
50.050, 6
50.075, 5
50.100, 6
50.125, 6
50.150, 6
50.175, 6
50.200, 7
50.225, 6
50.250, 6
50.275, 7
50.300, 6
50.325, 5
50.350, 6
50.375, 5
50.400, 4
50.425, 5
50.450, 5
50.475, 6
50.500, 6
50.525, 6
50.550, 5
50.575, 5
50.600, 7
50.625, 6
50.650, 6
50.675, 7
50.700, 4
50.725, 5
50.750, 6
50.775, 7
50.800, 6
50.825, 7
50.850, 8
50.875, 7
50.900, 6
50.925, 6
50.950, 6
50.975, 6
51.000, 8
51.025, 6
51.050, 7
51.075, 8
51.100, 4
51.125, 6
51.150, 6
51.175, 6
51.200, 8
51.225, 7
51.250, 9
51.275, 8
51.300, 6
51.325, 6
51.350, 7
51.375, 7
51.400, 8
51.425, 5
51.450, 8
51.475, 5
51.500, 7
51.525, 7
51.550, 8
51.575, 7
51.600, 7
51.625, 6
51.650, 7
51.675, 8
51.700, 9
51.725, 6
51.750, 8
51.775, 7
51.800,10
51.825, 8
51.850, 7
51.875, 8
51.900, 7
51.925, 7
51.950, 7
51.975, 7
52.000, 8
52.025, 9
52.050, 8
52.075, 6
52.100, 8
52.125, 6
52.150, 7
52.175, 7
52.200, 9
52.225, 7
52.250, 6
52.275, 8
52.300, 8
52.325, 9
52.350, 6
52.375, 7
52.400, 7
52.425, 9
52.450, 8
52.475, 8
52.500, 8
52.525, 7
52.550, 9
52.575, 8
52.600, 9
52.625, 7
52.650, 8
52.675, 9
52.700, 9
52.725,10
52.750, 7
52.775,10
52.800, 9
52.825, 8
52.850,10
52.875,10
52.900, 9
52.925,10
52.950, 8
52.975, 7
53.000, 9
53.025, 8
53.050,10
53.075, 9
53.100,10
53.125, 9
53.150,10
53.175,11
53.200,10
53.225, 8
53.250,10
53.275, 9
53.300,10
53.325,11
53.350,12
53.375,10
53.400,10
53.425, 9
53.450,10
53.475,11
53.500,12
53.525,11
53.550,11
53.575,10
53.600,11
53.625,12
53.650,13
53.675,13
53.700,12
53.725,13
53.750,10
53.775,10
53.800,10
53.825,12
53.850,12
53.875,13
53.900,10
53.925,12
53.950,15
53.975,12
54.000,13
54.025,15
54.050,12
54.075,15
54.100,14
54.125,15
54.150,14
54.175,15
54.200,14
54.225,13
54.250,15
54.275,16
54.300,15
54.325,16
54.350,16
54.375,15
54.400,17
54.425,20
54.450,33
54.475,69
54.500,128
54.525,170
54.550,194
54.575,200
54.600,195
54.625,182
54.650,176
54.675,164
54.700,152
54.725,144
54.750,128
54.775,107
54.800,86
54.825,70
54.850,62
54.875,50
54.900,42
54.925,39
54.950,33
54.975,31
55.000,27
