[Measurement conditions]
Sample identification,
Comment - 1,"Configuration=Filmes Finos 19_1_2015, Owner=User-1, Creation date=19/01/2015 21:17:15"
Comment - 2,"Goniometer=PW3050/60 (Theta/Theta); Minimum step size 2Theta:0.001; Minimum step size Omega:0.001"
Comment - 3,"Sample stage=PW3071/xx Bracket"
Comment - 4,"Diffractometer system=XPERT-PRO"
Comment - 5,"Measurement program=C:\PANalytical\Data Collector\Programs\GrazingIncidence.xrdmp, Identifier={1188D76C-BB31-48B4-B1BA-2C0B24B5F296}"
Anode material,Cu
K-Alpha1 wavelength,1.5405980
K-Alpha2 wavelength,1.5444260
Ratio K-Alpha2/K-Alpha1,0.500
Divergence slit,Fixed,0.76mm
Receiving slit,0.10
Monochromator used,YES
Generator voltage, 40
Tube current, 40
File date and time,12/Jun/2018 17:30
Unit cell,
h k l, 0 0 0
Scan axis,2Theta
Scan range,20.00000,71.72500
Scan step size,0.0250000
No. of points, 2069
Scan type,CONTINUOUS
Omega,5.000
Time per step,17.00
[Scan points]
Angle,Intensity
20.01250,463.0
20.03750,484.0
20.06250,451.0
20.08750,507.0
20.11250,490.0
20.13750,476.0
20.16250,480.0
20.18750,468.0
20.21250,474.0
20.23750,498.0
20.26250,449.0
20.28750,469.0
20.31250,455.0
20.33750,453.0
20.36250,427.0
20.38750,447.0
20.41250,464.0
20.43750,441.0
20.46250,500.0
20.48750,472.0
20.51250,443.0
20.53750,457.0
20.56250,428.0
20.58750,446.0
20.61250,490.0
20.63750,446.0
20.66250,456.0
20.68750,458.0
20.71250,435.0
20.73750,414.0
20.76250,440.0
20.78750,449.0
20.81250,445.0
20.83750,431.0
20.86250,453.0
20.88750,429.0
20.91250,402.0
20.93750,417.0
20.96250,436.0
20.98750,447.0
21.01250,451.0
21.03750,424.0
21.06250,427.0
21.08750,421.0
21.11250,434.0
21.13750,448.0
21.16250,469.0
21.18750,397.0
21.21250,371.0
21.23750,424.0
21.26250,419.0
21.28750,431.0
21.31250,408.0
21.33750,456.0
21.36250,425.0
21.38750,453.0
21.41250,405.0
21.43750,431.0
21.46250,440.0
21.48750,414.0
21.51250,438.0
21.53750,400.0
21.56250,372.0
21.58750,399.0
21.61250,409.0
21.63750,389.0
21.66250,392.0
21.68750,372.0
21.71250,374.0
21.73750,410.0
21.76250,408.0
21.78750,429.0
21.81250,423.0
21.83750,377.0
21.86250,362.0
21.88750,465.0
21.91250,387.0
21.93750,421.0
21.96250,372.0
21.98750,390.0
22.01250,383.0
22.03750,404.0
22.06250,384.0
22.08750,415.0
22.11250,403.0
22.13750,428.0
22.16250,403.0
22.18750,430.0
22.21250,408.0
22.23750,428.0
22.26250,379.0
22.28750,398.0
22.31250,400.0
22.33750,393.0
22.36250,401.0
22.38750,386.0
22.41250,422.0
22.43750,382.0
22.46250,384.0
22.48750,396.0
22.51250,416.0
22.53750,387.0
22.56250,395.0
22.58750,412.0
22.61250,422.0
22.63750,397.0
22.66250,431.0
22.68750,363.0
22.71250,389.0
22.73750,366.0
22.76250,415.0
22.78750,365.0
22.81250,396.0
22.83750,385.0
22.86250,412.0
22.88750,395.0
22.91250,391.0
22.93750,379.0
22.96250,370.0
22.98750,410.0
23.01250,433.0
23.03750,385.0
23.06250,393.0
23.08750,443.0
23.11250,377.0
23.13750,401.0
23.16250,381.0
23.18750,407.0
23.21250,376.0
23.23750,425.0
23.26250,397.0
23.28750,376.0
23.31250,349.0
23.33750,356.0
23.36250,412.0
23.38750,399.0
23.41250,379.0
23.43750,392.0
23.46250,395.0
23.48750,382.0
23.51250,380.0
23.53750,377.0
23.56250,388.0
23.58750,364.0
23.61250,423.0
23.63750,404.0
23.66250,421.0
23.68750,422.0
23.71250,419.0
23.73750,387.0
23.76250,445.0
23.78750,422.0
23.81250,414.0
23.83750,439.0
23.86250,419.0
23.88750,426.0
23.91250,439.0
23.93750,399.0
23.96250,433.0
23.98750,443.0
24.01250,459.0
24.03750,404.0
24.06250,469.0
24.08750,432.0
24.11250,436.0
24.13750,432.0
24.16250,475.0
24.18750,425.0
24.21250,441.0
24.23750,437.0
24.26250,500.0
24.28750,440.0
24.31250,456.0
24.33750,481.0
24.36250,499.0
24.38750,507.0
24.41250,501.0
24.43750,552.0
24.46250,561.0
24.48750,599.0
24.51250,580.0
24.53750,596.0
24.56250,639.0
24.58750,660.0
24.61250,666.0
24.63750,745.0
24.66250,740.0
24.68750,877.0
24.71250,861.0
24.73750,960.0
24.76250,1088.0
24.78750,1209.0
24.81250,1346.0
24.83750,1486.0
24.86250,1721.0
24.88750,2077.0
24.91250,2505.0
24.93750,2847.0
24.96250,3464.0
24.98750,4155.0
25.01250,4928.0
25.03750,6002.0
25.06250,7064.0
25.08750,8688.0
25.11250,10120.0
25.13750,11823.0
25.16250,12917.0
25.18750,14257.0
25.21250,14810.0
25.23750,15740.0
25.26250,15500.0
25.28750,15193.0
25.31250,14346.0
25.33750,13125.0
25.36250,11467.0
25.38750,9764.0
25.41250,8046.0
25.43750,6927.0
25.46250,5507.0
25.48750,4375.0
25.51250,3461.0
25.53750,2942.0
25.56250,2284.0
25.58750,1868.0
25.61250,1536.0
25.63750,1438.0
25.66250,1233.0
25.68750,1120.0
25.71250,990.0
25.73750,925.0
25.76250,832.0
25.78750,865.0
25.81250,723.0
25.83750,749.0
25.86250,682.0
25.88750,629.0
25.91250,614.0
25.93750,599.0
25.96250,560.0
25.98750,550.0
26.01250,524.0
26.03750,528.0
26.06250,449.0
26.08750,497.0
26.11250,518.0
26.13750,474.0
26.16250,451.0
26.18750,466.0
26.21250,468.0
26.23750,444.0
26.26250,455.0
26.28750,444.0
26.31250,456.0
26.33750,457.0
26.36250,474.0
26.38750,450.0
26.41250,432.0
26.43750,423.0
26.46250,425.0
26.48750,437.0
26.51250,457.0
26.53750,432.0
26.56250,425.0
26.58750,390.0
26.61250,407.0
26.63750,427.0
26.66250,413.0
26.68750,418.0
26.71250,425.0
26.73750,397.0
26.76250,443.0
26.78750,418.0
26.81250,422.0
26.83750,464.0
26.86250,430.0
26.88750,435.0
26.91250,451.0
26.93750,465.0
26.96250,476.0
26.98750,477.0
27.01250,468.0
27.03750,444.0
27.06250,501.0
27.08750,479.0
27.11250,520.0
27.13750,527.0
27.16250,531.0
27.18750,543.0
27.21250,544.0
27.23750,576.0
27.26250,578.0
27.28750,618.0
27.31250,540.0
27.33750,555.0
27.36250,584.0
27.38750,535.0
27.41250,602.0
27.43750,551.0
27.46250,542.0
27.48750,510.0
27.51250,518.0
27.53750,528.0
27.56250,475.0
27.58750,442.0
27.61250,503.0
27.63750,478.0
27.66250,429.0
27.68750,464.0
27.71250,441.0
27.73750,439.0
27.76250,442.0
27.78750,411.0
27.81250,388.0
27.83750,418.0
27.86250,404.0
27.88750,394.0
27.91250,375.0
27.93750,371.0
27.96250,374.0
27.98750,340.0
28.01250,386.0
28.03750,339.0
28.06250,368.0
28.08750,373.0
28.11250,367.0
28.13750,338.0
28.16250,353.0
28.18750,344.0
28.21250,348.0
28.23750,355.0
28.26250,347.0
28.28750,346.0
28.31250,376.0
28.33750,319.0
28.36250,294.0
28.38750,312.0
28.41250,336.0
28.43750,320.0
28.46250,313.0
28.48750,294.0
28.51250,296.0
28.53750,328.0
28.56250,334.0
28.58750,328.0
28.61250,306.0
28.63750,329.0
28.66250,338.0
28.68750,361.0
28.71250,298.0
28.73750,314.0
28.76250,325.0
28.78750,291.0
28.81250,314.0
28.83750,344.0
28.86250,302.0
28.88750,311.0
28.91250,316.0
28.93750,306.0
28.96250,316.0
28.98750,323.0
29.01250,280.0
29.03750,314.0
29.06250,282.0
29.08750,296.0
29.11250,292.0
29.13750,330.0
29.16250,284.0
29.18750,293.0
29.21250,320.0
29.23750,316.0
29.26250,302.0
29.28750,321.0
29.31250,313.0
29.33750,293.0
29.36250,290.0
29.38750,304.0
29.41250,329.0
29.43750,321.0
29.46250,345.0
29.48750,303.0
29.51250,318.0
29.53750,312.0
29.56250,285.0
29.58750,292.0
29.61250,300.0
29.63750,293.0
29.66250,272.0
29.68750,304.0
29.71250,288.0
29.73750,302.0
29.76250,287.0
29.78750,282.0
29.81250,306.0
29.83750,298.0
29.86250,287.0
29.88750,311.0
29.91250,315.0
29.93750,289.0
29.96250,274.0
29.98750,294.0
30.01250,306.0
30.03750,311.0
30.06250,301.0
30.08750,305.0
30.11250,283.0
30.13750,282.0
30.16250,301.0
30.18750,307.0
30.21250,278.0
30.23750,306.0
30.26250,296.0
30.28750,282.0
30.31250,294.0
30.33750,304.0
30.36250,295.0
30.38750,288.0
30.41250,295.0
30.43750,320.0
30.46250,303.0
30.48750,334.0
30.51250,298.0
30.53750,316.0
30.56250,286.0
30.58750,295.0
30.61250,321.0
30.63750,279.0
30.66250,334.0
30.68750,343.0
30.71250,320.0
30.73750,313.0
30.76250,319.0
30.78750,314.0
30.81250,333.0
30.83750,308.0
30.86250,321.0
30.88750,344.0
30.91250,296.0
30.93750,306.0
30.96250,294.0
30.98750,261.0
31.01250,297.0
31.03750,317.0
31.06250,270.0
31.08750,313.0
31.11250,290.0
31.13750,285.0
31.16250,295.0
31.18750,262.0
31.21250,297.0
31.23750,292.0
31.26250,280.0
31.28750,259.0
31.31250,266.0
31.33750,289.0
31.36250,267.0
31.38750,277.0
31.41250,287.0
31.43750,252.0
31.46250,272.0
31.48750,266.0
31.51250,266.0
31.53750,255.0
31.56250,263.0
31.58750,285.0
31.61250,261.0
31.63750,281.0
31.66250,254.0
31.68750,274.0
31.71250,244.0
31.73750,263.0
31.76250,296.0
31.78750,252.0
31.81250,266.0
31.83750,266.0
31.86250,268.0
31.88750,291.0
31.91250,275.0
31.93750,283.0
31.96250,256.0
31.98750,259.0
32.01250,275.0
32.03750,211.0
32.06250,269.0
32.08750,249.0
32.11250,292.0
32.13750,248.0
32.16250,214.0
32.18750,256.0
32.21250,284.0
32.23750,260.0
32.26250,241.0
32.28750,212.0
32.31250,237.0
32.33750,250.0
32.36250,247.0
32.38750,247.0
32.41250,262.0
32.43750,255.0
32.46250,225.0
32.48750,236.0
32.51250,226.0
32.53750,255.0
32.56250,283.0
32.58750,253.0
32.61250,239.0
32.63750,246.0
32.66250,259.0
32.68750,245.0
32.71250,253.0
32.73750,249.0
32.76250,261.0
32.78750,273.0
32.81250,239.0
32.83750,266.0
32.86250,241.0
32.88750,257.0
32.91250,264.0
32.93750,235.0
32.96250,285.0
32.98750,252.0
33.01250,251.0
33.03750,270.0
33.06250,262.0
33.08750,285.0
33.11250,249.0
33.13750,261.0
33.16250,262.0
33.18750,259.0
33.21250,234.0
33.23750,274.0
33.26250,236.0
33.28750,258.0
33.31250,252.0
33.33750,282.0
33.36250,275.0
33.38750,234.0
33.41250,247.0
33.43750,290.0
33.46250,275.0
33.48750,235.0
33.51250,271.0
33.53750,285.0
33.56250,247.0
33.58750,294.0
33.61250,236.0
33.63750,252.0
33.66250,252.0
33.68750,269.0
33.71250,249.0
33.73750,270.0
33.76250,242.0
33.78750,260.0
33.81250,263.0
33.83750,251.0
33.86250,259.0
33.88750,253.0
33.91250,281.0
33.93750,263.0
33.96250,300.0
33.98750,269.0
34.01250,270.0
34.03750,280.0
34.06250,276.0
34.08750,272.0
34.11250,310.0
34.13750,298.0
34.16250,260.0
34.18750,271.0
34.21250,281.0
34.23750,303.0
34.26250,306.0
34.28750,320.0
34.31250,295.0
34.33750,326.0
34.36250,359.0
34.38750,335.0
34.41250,356.0
34.43750,322.0
34.46250,382.0
34.48750,413.0
34.51250,425.0
34.53750,407.0
34.56250,478.0
34.58750,525.0
34.61250,591.0
34.63750,598.0
34.66250,722.0
34.68750,771.0
34.71250,889.0
34.73750,1071.0
34.76250,1256.0
34.78750,1453.0
34.81250,1815.0
34.83750,2057.0
34.86250,2375.0
34.88750,2757.0
34.91250,3235.0
34.93750,3456.0
34.96250,3784.0
34.98750,4169.0
35.01250,4298.0
35.03750,4452.0
35.06250,4495.0
35.08750,4191.0
35.11250,4012.0
35.13750,3625.0
35.16250,3323.0
35.18750,2984.0
35.21250,2561.0
35.23750,2225.0
35.26250,1908.0
35.28750,1656.0
35.31250,1410.0
35.33750,1145.0
35.36250,1003.0
35.38750,921.0
35.41250,820.0
35.43750,679.0
35.46250,625.0
35.48750,624.0
35.51250,538.0
35.53750,533.0
35.56250,504.0
35.58750,465.0
35.61250,495.0
35.63750,493.0
35.66250,413.0
35.68750,440.0
35.71250,443.0
35.73750,440.0
35.76250,418.0
35.78750,435.0
35.81250,452.0
35.83750,419.0
35.86250,412.0
35.88750,461.0
35.91250,443.0
35.93750,406.0
35.96250,435.0
35.98750,482.0
36.01250,408.0
36.03750,470.0
36.06250,413.0
36.08750,417.0
36.11250,447.0
36.13750,432.0
36.16250,446.0
36.18750,415.0
36.21250,438.0
36.23750,400.0
36.26250,388.0
36.28750,444.0
36.31250,410.0
36.33750,399.0
36.36250,459.0
36.38750,419.0
36.41250,425.0
36.43750,429.0
36.46250,462.0
36.48750,450.0
36.51250,433.0
36.53750,435.0
36.56250,498.0
36.58750,515.0
36.61250,484.0
36.63750,489.0
36.66250,500.0
36.68750,517.0
36.71250,584.0
36.73750,563.0
36.76250,594.0
36.78750,605.0
36.81250,665.0
36.83750,686.0
36.86250,686.0
36.88750,732.0
36.91250,661.0
36.93750,683.0
36.96250,701.0
36.98750,729.0
37.01250,772.0
37.03750,773.0
37.06250,701.0
37.08750,720.0
37.11250,716.0
37.13750,757.0
37.16250,686.0
37.18750,708.0
37.21250,717.0
37.23750,705.0
37.26250,728.0
37.28750,764.0
37.31250,811.0
37.33750,807.0
37.36250,790.0
37.38750,829.0
37.41250,916.0
37.43750,900.0
37.46250,959.0
37.48750,985.0
37.51250,1011.0
37.53750,1060.0
37.56250,1132.0
37.58750,1159.0
37.61250,1246.0
37.63750,1273.0
37.66250,1332.0
37.68750,1417.0
37.71250,1401.0
37.73750,1502.0
37.76250,1566.0
37.78750,1583.0
37.81250,1641.0
37.83750,1636.0
37.86250,1667.0
37.88750,1845.0
37.91250,1780.0
37.93750,1886.0
37.96250,1965.0
37.98750,2106.0
38.01250,2392.0
38.03750,2667.0
38.06250,3120.0
38.08750,3521.0
38.11250,4287.0
38.13750,5139.0
38.16250,6212.0
38.18750,7413.0
38.21250,8721.0
38.23750,10170.0
38.26250,11656.0
38.28750,13074.0
38.31250,13929.0
38.33750,14858.0
38.36250,15214.0
38.38750,15248.0
38.41250,14983.0
38.43750,14254.0
38.46250,13112.0
38.48750,11682.0
38.51250,10324.0
38.53750,9024.0
38.56250,7506.0
38.58750,5984.0
38.61250,5100.0
38.63750,4106.0
38.66250,3447.0
38.68750,2818.0
38.71250,2373.0
38.73750,1964.0
38.76250,1652.0
38.78750,1467.0
38.81250,1292.0
38.83750,1184.0
38.86250,1113.0
38.88750,1029.0
38.91250,968.0
38.93750,891.0
38.96250,922.0
38.98750,858.0
39.01250,832.0
39.03750,817.0
39.06250,836.0
39.08750,795.0
39.11250,860.0
39.13750,815.0
39.16250,813.0
39.18750,768.0
39.21250,811.0
39.23750,784.0
39.26250,850.0
39.28750,859.0
39.31250,879.0
39.33750,889.0
39.36250,935.0
39.38750,991.0
39.41250,979.0
39.43750,1046.0
39.46250,1088.0
39.48750,1148.0
39.51250,1218.0
39.53750,1388.0
39.56250,1380.0
39.58750,1523.0
39.61250,1672.0
39.63750,1751.0
39.66250,2001.0
39.68750,2372.0
39.71250,2702.0
39.73750,3129.0
39.76250,3663.0
39.78750,4378.0
39.81250,5512.0
39.83750,6288.0
39.86250,7865.0
39.88750,9436.0
39.91250,11235.0
39.93750,12999.0
39.96250,15291.0
39.98750,17612.0
40.01250,19760.0
40.03750,21586.0
40.06250,23456.0
40.08750,24432.0
40.11250,25149.0
40.13750,24744.0
40.16250,24040.0
40.18750,22799.0
40.21250,21388.0
40.23750,19293.0
40.26250,17229.0
40.28750,14903.0
40.31250,12867.0
40.33750,10952.0
40.36250,9280.0
40.38750,7650.0
40.41250,6263.0
40.43750,5153.0
40.46250,4243.0
40.48750,3462.0
40.51250,2874.0
40.53750,2420.0
40.56250,2030.0
40.58750,1723.0
40.61250,1517.0
40.63750,1338.0
40.66250,1137.0
40.68750,1070.0
40.71250,973.0
40.73750,914.0
40.76250,855.0
40.78750,779.0
40.81250,717.0
40.83750,672.0
40.86250,638.0
40.88750,623.0
40.91250,541.0
40.93750,543.0
40.96250,570.0
40.98750,542.0
41.01250,508.0
41.03750,491.0
41.06250,469.0
41.08750,460.0
41.11250,452.0
41.13750,456.0
41.16250,446.0
41.18750,406.0
41.21250,430.0
41.23750,397.0
41.26250,401.0
41.28750,412.0
41.31250,391.0
41.33750,372.0
41.36250,382.0
41.38750,370.0
41.41250,355.0
41.43750,357.0
41.46250,348.0
41.48750,342.0
41.51250,327.0
41.53750,328.0
41.56250,324.0
41.58750,317.0
41.61250,294.0
41.63750,316.0
41.66250,295.0
41.68750,312.0
41.71250,302.0
41.73750,314.0
41.76250,272.0
41.78750,282.0
41.81250,277.0
41.83750,296.0
41.86250,303.0
41.88750,264.0
41.91250,305.0
41.93750,290.0
41.96250,300.0
41.98750,263.0
42.01250,299.0
42.03750,301.0
42.06250,255.0
42.08750,262.0
42.11250,274.0
42.13750,281.0
42.16250,277.0
42.18750,270.0
42.21250,292.0
42.23750,276.0
42.26250,248.0
42.28750,258.0
42.31250,245.0
42.33750,259.0
42.36250,273.0
42.38750,282.0
42.41250,288.0
42.43750,251.0
42.46250,258.0
42.48750,239.0
42.51250,270.0
42.53750,254.0
42.56250,243.0
42.58750,239.0
42.61250,257.0
42.63750,236.0
42.66250,254.0
42.68750,249.0
42.71250,247.0
42.73750,265.0
42.76250,250.0
42.78750,249.0
42.81250,241.0
42.83750,232.0
42.86250,253.0
42.88750,242.0
42.91250,260.0
42.93750,262.0
42.96250,209.0
42.98750,256.0
43.01250,226.0
43.03750,248.0
43.06250,256.0
43.08750,223.0
43.11250,223.0
43.13750,258.0
43.16250,229.0
43.18750,243.0
43.21250,272.0
43.23750,233.0
43.26250,233.0
43.28750,240.0
43.31250,257.0
43.33750,231.0
43.36250,258.0
43.38750,239.0
43.41250,227.0
43.43750,192.0
43.46250,251.0
43.48750,246.0
43.51250,258.0
43.53750,215.0
43.56250,237.0
43.58750,246.0
43.61250,220.0
43.63750,232.0
43.66250,208.0
43.68750,222.0
43.71250,221.0
43.73750,223.0
43.76250,198.0
43.78750,222.0
43.81250,224.0
43.83750,247.0
43.86250,225.0
43.88750,225.0
43.91250,224.0
43.93750,205.0
43.96250,227.0
43.98750,223.0
44.01250,203.0
44.03750,194.0
44.06250,203.0
44.08750,223.0
44.11250,191.0
44.13750,208.0
44.16250,212.0
44.18750,207.0
44.21250,193.0
44.23750,183.0
44.26250,170.0
44.28750,200.0
44.31250,214.0
44.33750,209.0
44.36250,216.0
44.38750,194.0
44.41250,205.0
44.43750,224.0
44.46250,188.0
44.48750,188.0
44.51250,198.0
44.53750,177.0
44.56250,187.0
44.58750,188.0
44.61250,213.0
44.63750,179.0
44.66250,187.0
44.68750,168.0
44.71250,161.0
44.73750,184.0
44.76250,198.0
44.78750,175.0
44.81250,175.0
44.83750,189.0
44.86250,182.0
44.88750,186.0
44.91250,160.0
44.93750,192.0
44.96250,173.0
44.98750,169.0
45.01250,173.0
45.03750,197.0
45.06250,181.0
45.08750,197.0
45.11250,176.0
45.13750,192.0
45.16250,159.0
45.18750,178.0
45.21250,158.0
45.23750,173.0
45.26250,175.0
45.28750,182.0
45.31250,176.0
45.33750,178.0
45.36250,190.0
45.38750,170.0
45.41250,166.0
45.43750,177.0
45.46250,158.0
45.48750,163.0
45.51250,159.0
45.53750,175.0
45.56250,193.0
45.58750,177.0
45.61250,190.0
45.63750,175.0
45.66250,188.0
45.68750,165.0
45.71250,140.0
45.73750,184.0
45.76250,184.0
45.78750,163.0
45.81250,185.0
45.83750,173.0
45.86250,173.0
45.88750,156.0
45.91250,158.0
45.93750,181.0
45.96250,187.0
45.98750,165.0
46.01250,189.0
46.03750,161.0
46.06250,170.0
46.08750,171.0
46.11250,175.0
46.13750,155.0
46.16250,187.0
46.18750,151.0
46.21250,168.0
46.23750,166.0
46.26250,146.0
46.28750,149.0
46.31250,195.0
46.33750,166.0
46.36250,169.0
46.38750,168.0
46.41250,171.0
46.43750,166.0
46.46250,174.0
46.48750,184.0
46.51250,170.0
46.53750,149.0
46.56250,180.0
46.58750,145.0
46.61250,177.0
46.63750,165.0
46.66250,160.0
46.68750,168.0
46.71250,180.0
46.73750,161.0
46.76250,201.0
46.78750,190.0
46.81250,212.0
46.83750,193.0
46.86250,170.0
46.88750,204.0
46.91250,181.0
46.93750,197.0
46.96250,226.0
46.98750,186.0
47.01250,186.0
47.03750,207.0
47.06250,239.0
47.08750,214.0
47.11250,235.0
47.13750,228.0
47.16250,241.0
47.18750,223.0
47.21250,237.0
47.23750,285.0
47.26250,235.0
47.28750,253.0
47.31250,278.0
47.33750,291.0
47.36250,286.0
47.38750,282.0
47.41250,322.0
47.43750,329.0
47.46250,328.0
47.48750,431.0
47.51250,422.0
47.53750,490.0
47.56250,506.0
47.58750,565.0
47.61250,576.0
47.63750,690.0
47.66250,817.0
47.68750,873.0
47.71250,1070.0
47.73750,1252.0
47.76250,1535.0
47.78750,1772.0
47.81250,2187.0
47.83750,2635.0
47.86250,3026.0
47.88750,3460.0
47.91250,3937.0
47.93750,4040.0
47.96250,4452.0
47.98750,4635.0
48.01250,4605.0
48.03750,4527.0
48.06250,4258.0
48.08750,4151.0
48.11250,3600.0
48.13750,3352.0
48.16250,3005.0
48.18750,2511.0
48.21250,2124.0
48.23750,1777.0
48.26250,1505.0
48.28750,1255.0
48.31250,1002.0
48.33750,825.0
48.36250,761.0
48.38750,619.0
48.41250,556.0
48.43750,498.0
48.46250,500.0
48.48750,401.0
48.51250,357.0
48.53750,349.0
48.56250,319.0
48.58750,292.0
48.61250,277.0
48.63750,279.0
48.66250,301.0
48.68750,276.0
48.71250,261.0
48.73750,226.0
48.76250,231.0
48.78750,225.0
48.81250,192.0
48.83750,191.0
48.86250,201.0
48.88750,230.0
48.91250,189.0
48.93750,180.0
48.96250,191.0
48.98750,194.0
49.01250,194.0
49.03750,192.0
49.06250,186.0
49.08750,208.0
49.11250,192.0
49.13750,179.0
49.16250,189.0
49.18750,173.0
49.21250,135.0
49.23750,209.0
49.26250,181.0
49.28750,157.0
49.31250,205.0
49.33750,167.0
49.36250,173.0
49.38750,155.0
49.41250,168.0
49.43750,148.0
49.46250,168.0
49.48750,181.0
49.51250,175.0
49.53750,143.0
49.56250,142.0
49.58750,142.0
49.61250,139.0
49.63750,143.0
49.66250,154.0
49.68750,146.0
49.71250,142.0
49.73750,149.0
49.76250,174.0
49.78750,151.0
49.81250,150.0
49.83750,152.0
49.86250,159.0
49.88750,144.0
49.91250,160.0
49.93750,168.0
49.96250,134.0
49.98750,168.0
50.01250,156.0
50.03750,143.0
50.06250,141.0
50.08750,155.0
50.11250,158.0
50.13750,131.0
50.16250,150.0
50.18750,135.0
50.21250,146.0
50.23750,160.0
50.26250,146.0
50.28750,151.0
50.31250,169.0
50.33750,132.0
50.36250,161.0
50.38750,145.0
50.41250,163.0
50.43750,146.0
50.46250,144.0
50.48750,149.0
50.51250,160.0
50.53750,158.0
50.56250,160.0
50.58750,156.0
50.61250,160.0
50.63750,148.0
50.66250,139.0
50.68750,176.0
50.71250,145.0
50.73750,145.0
50.76250,151.0
50.78750,150.0
50.81250,164.0
50.83750,155.0
50.86250,156.0
50.88750,157.0
50.91250,126.0
50.93750,163.0
50.96250,141.0
50.98750,160.0
51.01250,169.0
51.03750,127.0
51.06250,156.0
51.08750,158.0
51.11250,168.0
51.13750,171.0
51.16250,173.0
51.18750,152.0
51.21250,150.0
51.23750,153.0
51.26250,169.0
51.28750,167.0
51.31250,164.0
51.33750,180.0
51.36250,168.0
51.38750,176.0
51.41250,183.0
51.43750,186.0
51.46250,172.0
51.48750,202.0
51.51250,152.0
51.53750,151.0
51.56250,156.0
51.58750,160.0
51.61250,177.0
51.63750,184.0
51.66250,196.0
51.68750,175.0
51.71250,171.0
51.73750,188.0
51.76250,187.0
51.78750,187.0
51.81250,190.0
51.83750,201.0
51.86250,201.0
51.88750,169.0
51.91250,191.0
51.93750,214.0
51.96250,197.0
51.98750,210.0
52.01250,208.0
52.03750,207.0
52.06250,213.0
52.08750,195.0
52.11250,207.0
52.13750,225.0
52.16250,232.0
52.18750,260.0
52.21250,254.0
52.23750,243.0
52.26250,283.0
52.28750,277.0
52.31250,324.0
52.33750,308.0
52.36250,279.0
52.38750,339.0
52.41250,393.0
52.43750,374.0
52.46250,407.0
52.48750,452.0
52.51250,523.0
52.53750,546.0
52.56250,621.0
52.58750,651.0
52.61250,833.0
52.63750,978.0
52.66250,1067.0
52.68750,1263.0
52.71250,1524.0
52.73750,1698.0
52.76250,2034.0
52.78750,2292.0
52.81250,2546.0
52.83750,2838.0
52.86250,3026.0
52.88750,3400.0
52.91250,3532.0
52.93750,3652.0
52.96250,3744.0
52.98750,3723.0
53.01250,3603.0
53.03750,3547.0
53.06250,3345.0
53.08750,3054.0
53.11250,2784.0
53.13750,2536.0
53.16250,2241.0
53.18750,2039.0
53.21250,1757.0
53.23750,1583.0
53.26250,1388.0
53.28750,1177.0
53.31250,1138.0
53.33750,948.0
53.36250,866.0
53.38750,809.0
53.41250,735.0
53.43750,667.0
53.46250,553.0
53.48750,580.0
53.51250,590.0
53.53750,555.0
53.56250,583.0
53.58750,525.0
53.61250,585.0
53.63750,554.0
53.66250,620.0
53.68750,648.0
53.71250,694.0
53.73750,689.0
53.76250,751.0
53.78750,711.0
53.81250,801.0
53.83750,764.0
53.86250,817.0
53.88750,836.0
53.91250,802.0
53.93750,830.0
53.96250,772.0
53.98750,821.0
54.01250,813.0
54.03750,719.0
54.06250,699.0
54.08750,677.0
54.11250,667.0
54.13750,616.0
54.16250,623.0
54.18750,625.0
54.21250,588.0
54.23750,595.0
54.26250,534.0
54.28750,548.0
54.31250,483.0
54.33750,499.0
54.36250,479.0
54.38750,486.0
54.41250,465.0
54.43750,488.0
54.46250,472.0
54.48750,458.0
54.51250,456.0
54.53750,462.0
54.56250,453.0
54.58750,523.0
54.61250,481.0
54.63750,503.0
54.66250,550.0
54.68750,603.0
54.71250,622.0
54.73750,651.0
54.76250,681.0
54.78750,815.0
54.81250,934.0
54.83750,1007.0
54.86250,1134.0
54.88750,1192.0
54.91250,1320.0
54.93750,1467.0
54.96250,1385.0
54.98750,1586.0
55.01250,1462.0
55.03750,1460.0
55.06250,1469.0
55.08750,1402.0
55.11250,1386.0
55.13750,1245.0
55.16250,1143.0
55.18750,1064.0
55.21250,928.0
55.23750,868.0
55.26250,749.0
55.28750,635.0
55.31250,576.0
55.33750,526.0
55.36250,470.0
55.38750,456.0
55.41250,411.0
55.43750,353.0
55.46250,336.0
55.48750,308.0
55.51250,279.0
55.53750,309.0
55.56250,254.0
55.58750,215.0
55.61250,245.0
55.63750,237.0
55.66250,231.0
55.68750,272.0
55.71250,253.0
55.73750,235.0
55.76250,215.0
55.78750,220.0
55.81250,211.0
55.83750,201.0
55.86250,226.0
55.88750,237.0
55.91250,208.0
55.93750,200.0
55.96250,200.0
55.98750,216.0
56.01250,201.0
56.03750,214.0
56.06250,196.0
56.08750,195.0
56.11250,194.0
56.13750,206.0
56.16250,240.0
56.18750,213.0
56.21250,208.0
56.23750,201.0
56.26250,201.0
56.28750,216.0
56.31250,217.0
56.33750,205.0
56.36250,192.0
56.38750,191.0
56.41250,193.0
56.43750,210.0
56.46250,192.0
56.48750,209.0
56.51250,182.0
56.53750,207.0
56.56250,178.0
56.58750,193.0
56.61250,174.0
56.63750,170.0
56.66250,175.0
56.68750,188.0
56.71250,176.0
56.73750,183.0
56.76250,168.0
56.78750,177.0
56.81250,167.0
56.83750,184.0
56.86250,187.0
56.88750,150.0
56.91250,186.0
56.93750,171.0
56.96250,179.0
56.98750,167.0
57.01250,173.0
57.03750,155.0
57.06250,165.0
57.08750,167.0
57.11250,174.0
57.13750,147.0
57.16250,158.0
57.18750,144.0
57.21250,160.0
57.23750,158.0
57.26250,140.0
57.28750,160.0
57.31250,161.0
57.33750,172.0
57.36250,169.0
57.38750,157.0
57.41250,145.0
57.43750,158.0
57.46250,164.0
57.48750,143.0
57.51250,158.0
57.53750,153.0
57.56250,155.0
57.58750,165.0
57.61250,146.0
57.63750,157.0
57.66250,142.0
57.68750,151.0
57.71250,152.0
57.73750,142.0
57.76250,162.0
57.78750,149.0
57.81250,152.0
57.83750,126.0
57.86250,148.0
57.88750,118.0
57.91250,154.0
57.93750,136.0
57.96250,145.0
57.98750,138.0
58.01250,129.0
58.03750,149.0
58.06250,153.0
58.08750,127.0
58.11250,157.0
58.13750,156.0
58.16250,153.0
58.18750,141.0
58.21250,139.0
58.23750,150.0
58.26250,137.0
58.28750,135.0
58.31250,134.0
58.33750,135.0
58.36250,147.0
58.38750,134.0
58.41250,135.0
58.43750,140.0
58.46250,149.0
58.48750,152.0
58.51250,143.0
58.53750,144.0
58.56250,153.0
58.58750,135.0
58.61250,130.0
58.63750,145.0
58.66250,128.0
58.68750,130.0
58.71250,140.0
58.73750,149.0
58.76250,162.0
58.78750,145.0
58.81250,156.0
58.83750,139.0
58.86250,125.0
58.88750,143.0
58.91250,133.0
58.93750,154.0
58.96250,147.0
58.98750,136.0
59.01250,139.0
59.03750,130.0
59.06250,140.0
59.08750,140.0
59.11250,155.0
59.13750,147.0
59.16250,135.0
59.18750,131.0
59.21250,143.0
59.23750,150.0
59.26250,140.0
59.28750,135.0
59.31250,164.0
59.33750,146.0
59.36250,162.0
59.38750,140.0
59.41250,150.0
59.43750,156.0
59.46250,148.0
59.48750,148.0
59.51250,142.0
59.53750,177.0
59.56250,162.0
59.58750,161.0
59.61250,141.0
59.63750,164.0
59.66250,148.0
59.68750,131.0
59.71250,152.0
59.73750,150.0
59.76250,146.0
59.78750,180.0
59.81250,158.0
59.83750,137.0
59.86250,153.0
59.88750,150.0
59.91250,166.0
59.93750,170.0
59.96250,184.0
59.98750,142.0
60.01250,148.0
60.03750,173.0
60.06250,164.0
60.08750,146.0
60.11250,156.0
60.13750,139.0
60.16250,165.0
60.18750,151.0
60.21250,153.0
60.23750,140.0
60.26250,165.0
60.28750,161.0
60.31250,144.0
60.33750,139.0
60.36250,163.0
60.38750,152.0
60.41250,162.0
60.43750,157.0
60.46250,149.0
60.48750,146.0
60.51250,142.0
60.53750,163.0
60.56250,155.0
60.58750,159.0
60.61250,148.0
60.63750,168.0
60.66250,171.0
60.68750,146.0
60.71250,172.0
60.73750,160.0
60.76250,140.0
60.78750,158.0
60.81250,158.0
60.83750,169.0
60.86250,162.0
60.88750,166.0
60.91250,167.0
60.93750,161.0
60.96250,177.0
60.98750,172.0
61.01250,179.0
61.03750,161.0
61.06250,171.0
61.08750,164.0
61.11250,190.0
61.13750,167.0
61.16250,174.0
61.18750,162.0
61.21250,162.0
61.23750,187.0
61.26250,175.0
61.28750,189.0
61.31250,181.0
61.33750,172.0
61.36250,179.0
61.38750,179.0
61.41250,206.0
61.43750,183.0
61.46250,169.0
61.48750,203.0
61.51250,209.0
61.53750,217.0
61.56250,225.0
61.58750,237.0
61.61250,229.0
61.63750,226.0
61.66250,202.0
61.68750,224.0
61.71250,220.0
61.73750,247.0
61.76250,273.0
61.78750,297.0
61.81250,312.0
61.83750,317.0
61.86250,352.0
61.88750,375.0
61.91250,376.0
61.93750,418.0
61.96250,430.0
61.98750,435.0
62.01250,437.0
62.03750,458.0
62.06250,495.0
62.08750,491.0
62.11250,545.0
62.13750,490.0
62.16250,532.0
62.18750,524.0
62.21250,507.0
62.23750,558.0
62.26250,551.0
62.28750,562.0
62.31250,609.0
62.33750,597.0
62.36250,609.0
62.38750,682.0
62.41250,734.0
62.43750,760.0
62.46250,820.0
62.48750,922.0
62.51250,994.0
62.53750,1106.0
62.56250,1178.0
62.58750,1338.0
62.61250,1415.0
62.63750,1533.0
62.66250,1685.0
62.68750,1718.0
62.71250,1860.0
62.73750,1856.0
62.76250,2107.0
62.78750,2120.0
62.81250,2133.0
62.83750,2250.0
62.86250,2315.0
62.88750,2380.0
62.91250,2317.0
62.93750,2210.0
62.96250,2118.0
62.98750,2144.0
63.01250,1992.0
63.03750,1951.0
63.06250,1764.0
63.08750,1609.0
63.11250,1564.0
63.13750,1412.0
63.16250,1221.0
63.18750,1152.0
63.21250,1069.0
63.23750,939.0
63.26250,838.0
63.28750,734.0
63.31250,683.0
63.33750,623.0
63.36250,596.0
63.38750,445.0
63.41250,490.0
63.43750,449.0
63.46250,400.0
63.48750,373.0
63.51250,349.0
63.53750,316.0
63.56250,320.0
63.58750,315.0
63.61250,308.0
63.63750,287.0
63.66250,275.0
63.68750,243.0
63.71250,257.0
63.73750,286.0
63.76250,271.0
63.78750,265.0
63.81250,245.0
63.83750,226.0
63.86250,255.0
63.88750,239.0
63.91250,257.0
63.93750,217.0
63.96250,214.0
63.98750,238.0
64.01250,211.0
64.03750,246.0
64.06250,201.0
64.08750,225.0
64.11250,215.0
64.13750,228.0
64.16250,197.0
64.18750,214.0
64.21250,202.0
64.23750,185.0
64.26250,196.0
64.28750,183.0
64.31250,181.0
64.33750,197.0
64.36250,206.0
64.38750,183.0
64.41250,190.0
64.43750,170.0
64.46250,194.0
64.48750,175.0
64.51250,188.0
64.53750,154.0
64.56250,186.0
64.58750,174.0
64.61250,159.0
64.63750,156.0
64.66250,178.0
64.68750,203.0
64.71250,174.0
64.73750,180.0
64.76250,171.0
64.78750,166.0
64.81250,170.0
64.83750,179.0
64.86250,197.0
64.88750,171.0
64.91250,163.0
64.93750,160.0
64.96250,167.0
64.98750,164.0
65.01250,149.0
65.03750,153.0
65.06250,149.0
65.08750,164.0
65.11250,155.0
65.13750,140.0
65.16250,155.0
65.18750,159.0
65.21250,157.0
65.23750,171.0
65.26250,160.0
65.28750,148.0
65.31250,147.0
65.33750,135.0
65.36250,154.0
65.38750,155.0
65.41250,146.0
65.43750,155.0
65.46250,163.0
65.48750,142.0
65.51250,168.0
65.53750,140.0
65.56250,124.0
65.58750,153.0
65.61250,148.0
65.63750,174.0
65.66250,148.0
65.68750,139.0
65.71250,155.0
65.73750,144.0
65.76250,151.0
65.78750,151.0
65.81250,158.0
65.83750,140.0
65.86250,134.0
65.88750,141.0
65.91250,134.0
65.93750,143.0
65.96250,136.0
65.98750,171.0
66.01250,141.0
66.03750,167.0
66.06250,146.0
66.08750,150.0
66.11250,154.0
66.13750,158.0
66.16250,143.0
66.18750,141.0
66.21250,156.0
66.23750,144.0
66.26250,141.0
66.28750,135.0
66.31250,165.0
66.33750,157.0
66.36250,162.0
66.38750,162.0
66.41250,142.0
66.43750,146.0
66.46250,131.0
66.48750,169.0
66.51250,129.0
66.53750,163.0
66.56250,135.0
66.58750,149.0
66.61250,154.0
66.63750,164.0
66.66250,163.0
66.68750,154.0
66.71250,146.0
66.73750,142.0
66.76250,160.0
66.78750,138.0
66.81250,155.0
66.83750,159.0
66.86250,171.0
66.88750,168.0
66.91250,153.0
66.93750,144.0
66.96250,134.0
66.98750,145.0
67.01250,135.0
67.03750,156.0
67.06250,130.0
67.08750,151.0
67.11250,153.0
67.13750,154.0
67.16250,138.0
67.18750,153.0
67.21250,132.0
67.23750,142.0
67.26250,134.0
67.28750,158.0
67.31250,151.0
67.33750,146.0
67.36250,148.0
67.38750,153.0
67.41250,163.0
67.43750,123.0
67.46250,159.0
67.48750,133.0
67.51250,144.0
67.53750,192.0
67.56250,161.0
67.58750,148.0
67.61250,163.0
67.63750,168.0
67.66250,149.0
67.68750,154.0
67.71250,133.0
67.73750,145.0
67.76250,174.0
67.78750,149.0
67.81250,179.0
67.83750,160.0
67.86250,167.0
67.88750,197.0
67.91250,175.0
67.93750,185.0
67.96250,183.0
67.98750,205.0
68.01250,191.0
68.03750,185.0
68.06250,194.0
68.08750,212.0
68.11250,198.0
68.13750,217.0
68.16250,183.0
68.18750,173.0
68.21250,234.0
68.23750,193.0
68.26250,200.0
68.28750,244.0
68.31250,217.0
68.33750,213.0
68.36250,231.0
68.38750,245.0
68.41250,225.0
68.43750,244.0
68.46250,261.0
68.48750,248.0
68.51250,260.0
68.53750,251.0
68.56250,276.0
68.58750,326.0
68.61250,336.0
68.63750,302.0
68.66250,330.0
68.68750,343.0
68.71250,347.0
68.73750,352.0
68.76250,336.0
68.78750,318.0
68.81250,333.0
68.83750,367.0
68.86250,327.0
68.88750,371.0
68.91250,336.0
68.93750,314.0
68.96250,330.0
68.98750,295.0
69.01250,322.0
69.03750,306.0
69.06250,312.0
69.08750,296.0
69.11250,287.0
69.13750,285.0
69.16250,261.0
69.18750,256.0
69.21250,268.0
69.23750,268.0
69.26250,283.0
69.28750,267.0
69.31250,282.0
69.33750,281.0
69.36250,250.0
69.38750,255.0
69.41250,259.0
69.43750,256.0
69.46250,284.0
69.48750,295.0
69.51250,274.0
69.53750,256.0
69.56250,329.0
69.58750,287.0
69.61250,270.0
69.63750,292.0
69.66250,288.0
69.68750,331.0
69.71250,323.0
69.73750,329.0
69.76250,409.0
69.78750,377.0
69.81250,375.0
69.83750,382.0
69.86250,417.0
69.88750,425.0
69.91250,453.0
69.93750,485.0
69.96250,537.0
69.98750,553.0
70.01250,555.0
70.03750,591.0
70.06250,718.0
70.08750,757.0
70.11250,764.0
70.13750,860.0
70.16250,945.0
70.18750,1002.0
70.21250,1082.0
70.23750,1195.0
70.26250,1251.0
70.28750,1398.0
70.31250,1476.0
70.33750,1636.0
70.36250,1720.0
70.38750,1929.0
70.41250,2138.0
70.43750,2447.0
70.46250,2601.0
70.48750,2865.0
70.51250,3150.0
70.53750,3232.0
70.56250,3373.0
70.58750,3544.0
70.61250,3669.0
70.63750,3750.0
70.66250,3675.0
70.68750,3541.0
70.71250,3504.0
70.73750,3350.0
70.76250,3298.0
70.78750,2953.0
70.81250,2764.0
70.83750,2589.0
70.86250,2494.0
70.88750,2158.0
70.91250,1986.0
70.93750,1849.0
70.96250,1587.0
70.98750,1398.0
71.01250,1300.0
71.03750,1148.0
71.06250,968.0
71.08750,890.0
71.11250,751.0
71.13750,688.0
71.16250,588.0
71.18750,597.0
71.21250,520.0
71.23750,451.0
71.26250,393.0
71.28750,405.0
71.31250,340.0
71.33750,334.0
71.36250,295.0
71.38750,297.0
71.41250,324.0
71.43750,284.0
71.46250,287.0
71.48750,261.0
71.51250,234.0
71.53750,255.0
71.56250,239.0
71.58750,258.0
71.61250,235.0
71.63750,225.0
71.66250,178.0
71.68750,192.0
71.71250,202.0
