[Measurement conditions]
Sample identification,
Comment - 1,"Configuration=Filmes Finos 19_1_2015, Owner=User-1, Creation date=19/01/2015 21:17:15"
Comment - 2,"Goniometer=PW3050/60 (Theta/Theta); Minimum step size 2Theta:0.001; Minimum step size Omega:0.001"
Comment - 3,"Sample stage=PW3071/xx Bracket"
Comment - 4,"Diffractometer system=XPERT-PRO"
Comment - 5,"Measurement program=C:\PANalytical\Data Collector\Programs\GrazingIncidence.xrdmp, Identifier={07D6FCFD-48B5-4C05-A893-001347146203}"
Anode material,Cu
K-Alpha1 wavelength,1.5405980
K-Alpha2 wavelength,1.5444260
Ratio K-Alpha2/K-Alpha1,0.500
Divergence slit,Fixed,0.76mm
Receiving slit,0.10
Monochromator used,YES
Generator voltage, 40
Tube current, 40
File date and time,13/Jun/2018 17:44
Unit cell,
h k l, 0 0 0
Scan axis,2Theta
Scan range,19.99600,99.99600
Scan step size,0.0250000
No. of points, 3200
Scan type,CONTINUOUS
Omega,5.000
Time per step,17.00
[Scan points]
Angle,Intensity
20.00850,446.0
20.03350,437.0
20.05850,475.0
20.08350,471.0
20.10850,444.0
20.13350,463.0
20.15850,483.0
20.18350,462.0
20.20850,440.0
20.23350,440.0
20.25850,425.0
20.28350,373.0
20.30850,391.0
20.33350,438.0
20.35850,448.0
20.38350,424.0
20.40850,458.0
20.43350,437.0
20.45850,426.0
20.48350,408.0
20.50850,442.0
20.53350,408.0
20.55850,443.0
20.58350,436.0
20.60850,463.0
20.63350,473.0
20.65850,401.0
20.68350,425.0
20.70850,397.0
20.73350,425.0
20.75850,439.0
20.78350,467.0
20.80850,439.0
20.83350,400.0
20.85850,424.0
20.88350,458.0
20.90850,422.0
20.93350,435.0
20.95850,430.0
20.98350,408.0
21.00850,452.0
21.03350,398.0
21.05850,390.0
21.08350,458.0
21.10850,465.0
21.13350,454.0
21.15850,407.0
21.18350,426.0
21.20850,446.0
21.23350,403.0
21.25850,446.0
21.28350,405.0
21.30850,399.0
21.33350,389.0
21.35850,429.0
21.38350,399.0
21.40850,413.0
21.43350,450.0
21.45850,418.0
21.48350,413.0
21.50850,427.0
21.53350,389.0
21.55850,407.0
21.58350,407.0
21.60850,423.0
21.63350,409.0
21.65850,389.0
21.68350,407.0
21.70850,386.0
21.73350,425.0
21.75850,377.0
21.78350,398.0
21.80850,443.0
21.83350,409.0
21.85850,385.0
21.88350,414.0
21.90850,384.0
21.93350,375.0
21.95850,383.0
21.98350,427.0
22.00850,395.0
22.03350,433.0
22.05850,410.0
22.08350,380.0
22.10850,403.0
22.13350,402.0
22.15850,397.0
22.18350,393.0
22.20850,403.0
22.23350,382.0
22.25850,376.0
22.28350,377.0
22.30850,386.0
22.33350,406.0
22.35850,396.0
22.38350,408.0
22.40850,425.0
22.43350,341.0
22.45850,402.0
22.48350,395.0
22.50850,393.0
22.53350,349.0
22.55850,403.0
22.58350,387.0
22.60850,383.0
22.63350,369.0
22.65850,391.0
22.68350,378.0
22.70850,369.0
22.73350,350.0
22.75850,399.0
22.78350,362.0
22.80850,377.0
22.83350,394.0
22.85850,373.0
22.88350,370.0
22.90850,370.0
22.93350,354.0
22.95850,380.0
22.98350,357.0
23.00850,365.0
23.03350,379.0
23.05850,366.0
23.08350,353.0
23.10850,386.0
23.13350,353.0
23.15850,414.0
23.18350,353.0
23.20850,409.0
23.23350,396.0
23.25850,391.0
23.28350,396.0
23.30850,382.0
23.33350,374.0
23.35850,398.0
23.38350,394.0
23.40850,412.0
23.43350,397.0
23.45850,382.0
23.48350,371.0
23.50850,398.0
23.53350,385.0
23.55850,385.0
23.58350,378.0
23.60850,373.0
23.63350,401.0
23.65850,433.0
23.68350,389.0
23.70850,441.0
23.73350,411.0
23.75850,360.0
23.78350,389.0
23.80850,393.0
23.83350,390.0
23.85850,391.0
23.88350,409.0
23.90850,391.0
23.93350,428.0
23.95850,417.0
23.98350,417.0
24.00850,398.0
24.03350,425.0
24.05850,416.0
24.08350,431.0
24.10850,414.0
24.13350,407.0
24.15850,415.0
24.18350,410.0
24.20850,401.0
24.23350,460.0
24.25850,423.0
24.28350,454.0
24.30850,463.0
24.33350,446.0
24.35850,481.0
24.38350,474.0
24.40850,479.0
24.43350,498.0
24.45850,502.0
24.48350,555.0
24.50850,630.0
24.53350,598.0
24.55850,535.0
24.58350,612.0
24.60850,622.0
24.63350,661.0
24.65850,724.0
24.68350,799.0
24.70850,819.0
24.73350,874.0
24.75850,1030.0
24.78350,1146.0
24.80850,1247.0
24.83350,1413.0
24.85850,1606.0
24.88350,1842.0
24.90850,2291.0
24.93350,2605.0
24.95850,3133.0
24.98350,3693.0
25.00850,4498.0
25.03350,5372.0
25.05850,6390.0
25.08350,7677.0
25.10850,8725.0
25.13350,9928.0
25.15850,11248.0
25.18350,12301.0
25.20850,12947.0
25.23350,13490.0
25.25850,13717.0
25.28350,13395.0
25.30850,12818.0
25.33350,11706.0
25.35850,10481.0
25.38350,8942.0
25.40850,7625.0
25.43350,6270.0
25.45850,5148.0
25.48350,4171.0
25.50850,3321.0
25.53350,2626.0
25.55850,2214.0
25.58350,1744.0
25.60850,1465.0
25.63350,1275.0
25.65850,1173.0
25.68350,1002.0
25.70850,913.0
25.73350,841.0
25.75850,838.0
25.78350,704.0
25.80850,758.0
25.83350,660.0
25.85850,632.0
25.88350,647.0
25.90850,612.0
25.93350,545.0
25.95850,518.0
25.98350,493.0
26.00850,496.0
26.03350,496.0
26.05850,514.0
26.08350,480.0
26.10850,459.0
26.13350,472.0
26.15850,446.0
26.18350,432.0
26.20850,423.0
26.23350,413.0
26.25850,385.0
26.28350,409.0
26.30850,459.0
26.33350,462.0
26.35850,435.0
26.38350,414.0
26.40850,413.0
26.43350,409.0
26.45850,444.0
26.48350,384.0
26.50850,399.0
26.53350,437.0
26.55850,402.0
26.58350,425.0
26.60850,396.0
26.63350,412.0
26.65850,396.0
26.68350,394.0
26.70850,394.0
26.73350,385.0
26.75850,417.0
26.78350,442.0
26.80850,406.0
26.83350,414.0
26.85850,440.0
26.88350,389.0
26.90850,416.0
26.93350,417.0
26.95850,406.0
26.98350,448.0
27.00850,434.0
27.03350,445.0
27.05850,457.0
27.08350,468.0
27.10850,485.0
27.13350,494.0
27.15850,504.0
27.18350,490.0
27.20850,523.0
27.23350,500.0
27.25850,516.0
27.28350,531.0
27.30850,585.0
27.33350,568.0
27.35850,527.0
27.38350,565.0
27.40850,528.0
27.43350,524.0
27.45850,508.0
27.48350,501.0
27.50850,477.0
27.53350,465.0
27.55850,497.0
27.58350,432.0
27.60850,463.0
27.63350,455.0
27.65850,417.0
27.68350,448.0
27.70850,432.0
27.73350,416.0
27.75850,378.0
27.78350,352.0
27.80850,388.0
27.83350,384.0
27.85850,384.0
27.88350,395.0
27.90850,393.0
27.93350,379.0
27.95850,356.0
27.98350,345.0
28.00850,362.0
28.03350,389.0
28.05850,335.0
28.08350,363.0
28.10850,350.0
28.13350,364.0
28.15850,346.0
28.18350,343.0
28.20850,323.0
28.23350,356.0
28.25850,322.0
28.28350,338.0
28.30850,347.0
28.33350,359.0
28.35850,314.0
28.38350,332.0
28.40850,303.0
28.43350,348.0
28.45850,310.0
28.48350,326.0
28.50850,306.0
28.53350,317.0
28.55850,311.0
28.58350,310.0
28.60850,325.0
28.63350,308.0
28.65850,316.0
28.68350,312.0
28.70850,313.0
28.73350,269.0
28.75850,305.0
28.78350,330.0
28.80850,306.0
28.83350,303.0
28.85850,296.0
28.88350,293.0
28.90850,288.0
28.93350,329.0
28.95850,307.0
28.98350,331.0
29.00850,310.0
29.03350,305.0
29.05850,287.0
29.08350,328.0
29.10850,271.0
29.13350,292.0
29.15850,316.0
29.18350,321.0
29.20850,307.0
29.23350,302.0
29.25850,327.0
29.28350,316.0
29.30850,295.0
29.33350,295.0
29.35850,299.0
29.38350,319.0
29.40850,285.0
29.43350,327.0
29.45850,288.0
29.48350,305.0
29.50850,297.0
29.53350,307.0
29.55850,308.0
29.58350,272.0
29.60850,304.0
29.63350,286.0
29.65850,270.0
29.68350,290.0
29.70850,306.0
29.73350,264.0
29.75850,324.0
29.78350,287.0
29.80850,278.0
29.83350,283.0
29.85850,269.0
29.88350,279.0
29.90850,285.0
29.93350,293.0
29.95850,275.0
29.98350,277.0
30.00850,311.0
30.03350,291.0
30.05850,269.0
30.08350,273.0
30.10850,283.0
30.13350,269.0
30.15850,295.0
30.18350,282.0
30.20850,287.0
30.23350,283.0
30.25850,291.0
30.28350,280.0
30.30850,264.0
30.33350,287.0
30.35850,260.0
30.38350,274.0
30.40850,287.0
30.43350,295.0
30.45850,276.0
30.48350,327.0
30.50850,296.0
30.53350,282.0
30.55850,306.0
30.58350,311.0
30.60850,253.0
30.63350,337.0
30.65850,303.0
30.68350,314.0
30.70850,323.0
30.73350,337.0
30.75850,328.0
30.78350,325.0
30.80850,305.0
30.83350,312.0
30.85850,339.0
30.88350,324.0
30.90850,346.0
30.93350,314.0
30.95850,326.0
30.98350,277.0
31.00850,340.0
31.03350,303.0
31.05850,305.0
31.08350,275.0
31.10850,294.0
31.13350,287.0
31.15850,270.0
31.18350,250.0
31.20850,289.0
31.23350,271.0
31.25850,267.0
31.28350,280.0
31.30850,283.0
31.33350,256.0
31.35850,273.0
31.38350,265.0
31.40850,275.0
31.43350,274.0
31.45850,231.0
31.48350,276.0
31.50850,282.0
31.53350,238.0
31.55850,244.0
31.58350,251.0
31.60850,245.0
31.63350,268.0
31.65850,277.0
31.68350,249.0
31.70850,292.0
31.73350,233.0
31.75850,272.0
31.78350,245.0
31.80850,275.0
31.83350,246.0
31.85850,272.0
31.88350,271.0
31.90850,263.0
31.93350,263.0
31.95850,271.0
31.98350,228.0
32.00850,262.0
32.03350,232.0
32.05850,275.0
32.08350,250.0
32.10850,214.0
32.13350,238.0
32.15850,261.0
32.18350,259.0
32.20850,284.0
32.23350,232.0
32.25850,271.0
32.28350,253.0
32.30850,245.0
32.33350,240.0
32.35850,242.0
32.38350,262.0
32.40850,237.0
32.43350,271.0
32.45850,222.0
32.48350,247.0
32.50850,247.0
32.53350,223.0
32.55850,261.0
32.58350,254.0
32.60850,225.0
32.63350,241.0
32.65850,267.0
32.68350,240.0
32.70850,232.0
32.73350,251.0
32.75850,234.0
32.78350,248.0
32.80850,257.0
32.83350,266.0
32.85850,233.0
32.88350,254.0
32.90850,254.0
32.93350,237.0
32.95850,222.0
32.98350,252.0
33.00850,286.0
33.03350,266.0
33.05850,266.0
33.08350,281.0
33.10850,272.0
33.13350,237.0
33.15850,274.0
33.18350,271.0
33.20850,249.0
33.23350,273.0
33.25850,265.0
33.28350,247.0
33.30850,254.0
33.33350,251.0
33.35850,229.0
33.38350,267.0
33.40850,246.0
33.43350,246.0
33.45850,240.0
33.48350,251.0
33.50850,261.0
33.53350,260.0
33.55850,242.0
33.58350,267.0
33.60850,242.0
33.63350,282.0
33.65850,239.0
33.68350,267.0
33.70850,280.0
33.73350,262.0
33.75850,241.0
33.78350,273.0
33.80850,268.0
33.83350,239.0
33.85850,266.0
33.88350,251.0
33.90850,273.0
33.93350,276.0
33.95850,292.0
33.98350,279.0
34.00850,284.0
34.03350,288.0
34.05850,290.0
34.08350,252.0
34.10850,263.0
34.13350,277.0
34.15850,272.0
34.18350,290.0
34.20850,304.0
34.23350,294.0
34.25850,322.0
34.28350,324.0
34.30850,302.0
34.33350,348.0
34.35850,323.0
34.38350,340.0
34.40850,383.0
34.43350,359.0
34.45850,366.0
34.48350,401.0
34.50850,413.0
34.53350,401.0
34.55850,461.0
34.58350,470.0
34.60850,558.0
34.63350,576.0
34.65850,732.0
34.68350,853.0
34.70850,920.0
34.73350,1120.0
34.75850,1313.0
34.78350,1537.0
34.80850,1897.0
34.83350,2152.0
34.85850,2516.0
34.88350,2904.0
34.90850,3385.0
34.93350,3714.0
34.95850,4061.0
34.98350,4445.0
35.00850,4607.0
35.03350,4571.0
35.05850,4501.0
35.08350,4468.0
35.10850,4249.0
35.13350,3812.0
35.15850,3492.0
35.18350,3169.0
35.20850,2720.0
35.23350,2344.0
35.25850,1991.0
35.28350,1697.0
35.30850,1369.0
35.33350,1236.0
35.35850,1056.0
35.38350,906.0
35.40850,871.0
35.43350,725.0
35.45850,620.0
35.48350,649.0
35.50850,551.0
35.53350,516.0
35.55850,498.0
35.58350,490.0
35.60850,478.0
35.63350,446.0
35.65850,453.0
35.68350,480.0
35.70850,427.0
35.73350,424.0
35.75850,429.0
35.78350,433.0
35.80850,441.0
35.83350,402.0
35.85850,401.0
35.88350,446.0
35.90850,410.0
35.93350,463.0
35.95850,442.0
35.98350,413.0
36.00850,463.0
36.03350,462.0
36.05850,404.0
36.08350,437.0
36.10850,447.0
36.13350,428.0
36.15850,386.0
36.18350,433.0
36.20850,425.0
36.23350,388.0
36.25850,420.0
36.28350,414.0
36.30850,394.0
36.33350,419.0
36.35850,465.0
36.38350,463.0
36.40850,433.0
36.43350,403.0
36.45850,443.0
36.48350,444.0
36.50850,470.0
36.53350,468.0
36.55850,449.0
36.58350,480.0
36.60850,504.0
36.63350,476.0
36.65850,524.0
36.68350,530.0
36.70850,491.0
36.73350,577.0
36.75850,575.0
36.78350,594.0
36.80850,598.0
36.83350,612.0
36.85850,619.0
36.88350,687.0
36.90850,678.0
36.93350,640.0
36.95850,648.0
36.98350,705.0
37.00850,706.0
37.03350,636.0
37.05850,692.0
37.08350,714.0
37.10850,687.0
37.13350,737.0
37.15850,712.0
37.18350,646.0
37.20850,675.0
37.23350,731.0
37.25850,762.0
37.28350,767.0
37.30850,742.0
37.33350,770.0
37.35850,800.0
37.38350,799.0
37.40850,881.0
37.43350,879.0
37.45850,888.0
37.48350,942.0
37.50850,966.0
37.53350,1016.0
37.55850,1103.0
37.58350,1131.0
37.60850,1130.0
37.63350,1152.0
37.65850,1261.0
37.68350,1325.0
37.70850,1303.0
37.73350,1388.0
37.75850,1561.0
37.78350,1503.0
37.80850,1475.0
37.83350,1471.0
37.85850,1549.0
37.88350,1628.0
37.90850,1771.0
37.93350,1689.0
37.95850,1903.0
37.98350,2029.0
38.00850,2213.0
38.03350,2430.0
38.05850,2929.0
38.08350,3402.0
38.10850,4060.0
38.13350,4866.0
38.15850,5902.0
38.18350,7225.0
38.20850,8474.0
38.23350,9912.0
38.25850,11333.0
38.28350,12182.0
38.30850,13249.0
38.33350,14083.0
38.35850,14541.0
38.38350,14447.0
38.40850,14301.0
38.43350,13326.0
38.45850,12211.0
38.48350,11107.0
38.50850,9742.0
38.53350,8427.0
38.55850,6954.0
38.58350,6042.0
38.60850,4838.0
38.63350,3970.0
38.65850,3177.0
38.68350,2604.0
38.70850,2209.0
38.73350,1837.0
38.75850,1573.0
38.78350,1414.0
38.80850,1236.0
38.83350,1124.0
38.85850,1036.0
38.88350,1049.0
38.90850,906.0
38.93350,893.0
38.95850,952.0
38.98350,867.0
39.00850,860.0
39.03350,843.0
39.05850,809.0
39.08350,824.0
39.10850,793.0
39.13350,767.0
39.15850,805.0
39.18350,804.0
39.20850,822.0
39.23350,771.0
39.25850,838.0
39.28350,841.0
39.30850,887.0
39.33350,863.0
39.35850,927.0
39.38350,1007.0
39.40850,987.0
39.43350,1064.0
39.45850,1053.0
39.48350,1130.0
39.50850,1197.0
39.53350,1315.0
39.55850,1415.0
39.58350,1600.0
39.60850,1670.0
39.63350,1959.0
39.65850,2203.0
39.68350,2526.0
39.70850,2713.0
39.73350,3307.0
39.75850,4033.0
39.78350,4746.0
39.80850,5739.0
39.83350,7039.0
39.85850,8445.0
39.88350,10135.0
39.90850,12473.0
39.93350,14570.0
39.95850,17134.0
39.98350,19793.0
40.00850,21984.0
40.03350,24057.0
40.05850,25952.0
40.08350,27181.0
40.10850,27576.0
40.13350,27603.0
40.15850,26587.0
40.18350,25310.0
40.20850,23472.0
40.23350,21185.0
40.25850,18821.0
40.28350,16601.0
40.30850,14000.0
40.33350,11755.0
40.35850,9832.0
40.38350,8272.0
40.40850,6737.0
40.43350,5518.0
40.45850,4561.0
40.48350,3620.0
40.50850,3008.0
40.53350,2454.0
40.55850,2117.0
40.58350,1838.0
40.60850,1602.0
40.63350,1369.0
40.65850,1302.0
40.68350,1145.0
40.70850,1046.0
40.73350,960.0
40.75850,831.0
40.78350,811.0
40.80850,758.0
40.83350,702.0
40.85850,642.0
40.88350,615.0
40.90850,629.0
40.93350,594.0
40.95850,583.0
40.98350,478.0
41.00850,522.0
41.03350,538.0
41.05850,515.0
41.08350,463.0
41.10850,504.0
41.13350,454.0
41.15850,468.0
41.18350,417.0
41.20850,401.0
41.23350,403.0
41.25850,412.0
41.28350,422.0
41.30850,439.0
41.33350,385.0
41.35850,386.0
41.38350,370.0
41.40850,377.0
41.43350,337.0
41.45850,330.0
41.48350,310.0
41.50850,309.0
41.53350,261.0
41.55850,299.0
41.58350,345.0
41.60850,316.0
41.63350,279.0
41.65850,317.0
41.68350,274.0
41.70850,296.0
41.73350,313.0
41.75850,279.0
41.78350,299.0
41.80850,298.0
41.83350,279.0
41.85850,277.0
41.88350,287.0
41.90850,281.0
41.93350,280.0
41.95850,257.0
41.98350,267.0
42.00850,280.0
42.03350,289.0
42.05850,269.0
42.08350,274.0
42.10850,258.0
42.13350,253.0
42.15850,270.0
42.18350,284.0
42.20850,267.0
42.23350,275.0
42.25850,284.0
42.28350,286.0
42.30850,264.0
42.33350,282.0
42.35850,260.0
42.38350,266.0
42.40850,272.0
42.43350,272.0
42.45850,246.0
42.48350,255.0
42.50850,271.0
42.53350,242.0
42.55850,256.0
42.58350,233.0
42.60850,228.0
42.63350,276.0
42.65850,247.0
42.68350,264.0
42.70850,241.0
42.73350,202.0
42.75850,240.0
42.78350,225.0
42.80850,262.0
42.83350,238.0
42.85850,226.0
42.88350,260.0
42.90850,238.0
42.93350,224.0
42.95850,238.0
42.98350,254.0
43.00850,237.0
43.03350,261.0
43.05850,210.0
43.08350,247.0
43.10850,212.0
43.13350,234.0
43.15850,268.0
43.18350,232.0
43.20850,233.0
43.23350,265.0
43.25850,226.0
43.28350,244.0
43.30850,263.0
43.33350,236.0
43.35850,256.0
43.38350,232.0
43.40850,237.0
43.43350,230.0
43.45850,230.0
43.48350,219.0
43.50850,239.0
43.53350,245.0
43.55850,230.0
43.58350,239.0
43.60850,214.0
43.63350,235.0
43.65850,218.0
43.68350,228.0
43.70850,231.0
43.73350,208.0
43.75850,209.0
43.78350,223.0
43.80850,231.0
43.83350,213.0
43.85850,207.0
43.88350,214.0
43.90850,216.0
43.93350,208.0
43.95850,220.0
43.98350,223.0
44.00850,177.0
44.03350,226.0
44.05850,175.0
44.08350,191.0
44.10850,204.0
44.13350,201.0
44.15850,203.0
44.18350,186.0
44.20850,191.0
44.23350,191.0
44.25850,200.0
44.28350,199.0
44.30850,193.0
44.33350,163.0
44.35850,186.0
44.38350,190.0
44.40850,190.0
44.43350,178.0
44.45850,199.0
44.48350,192.0
44.50850,189.0
44.53350,184.0
44.55850,192.0
44.58350,191.0
44.60850,184.0
44.63350,162.0
44.65850,198.0
44.68350,183.0
44.70850,166.0
44.73350,172.0
44.75850,178.0
44.78350,181.0
44.80850,188.0
44.83350,193.0
44.85850,197.0
44.88350,194.0
44.90850,172.0
44.93350,173.0
44.95850,180.0
44.98350,197.0
45.00850,197.0
45.03350,175.0
45.05850,169.0
45.08350,161.0
45.10850,156.0
45.13350,180.0
45.15850,182.0
45.18350,180.0
45.20850,180.0
45.23350,166.0
45.25850,166.0
45.28350,184.0
45.30850,168.0
45.33350,156.0
45.35850,150.0
45.38350,161.0
45.40850,171.0
45.43350,180.0
45.45850,174.0
45.48350,152.0
45.50850,163.0
45.53350,194.0
45.55850,160.0
45.58350,158.0
45.60850,167.0
45.63350,195.0
45.65850,157.0
45.68350,157.0
45.70850,182.0
45.73350,174.0
45.75850,175.0
45.78350,158.0
45.80850,150.0
45.83350,157.0
45.85850,172.0
45.88350,176.0
45.90850,160.0
45.93350,156.0
45.95850,171.0
45.98350,146.0
46.00850,143.0
46.03350,167.0
46.05850,179.0
46.08350,198.0
46.10850,172.0
46.13350,177.0
46.15850,159.0
46.18350,156.0
46.20850,187.0
46.23350,166.0
46.25850,158.0
46.28350,168.0
46.30850,156.0
46.33350,158.0
46.35850,163.0
46.38350,184.0
46.40850,158.0
46.43350,165.0
46.45850,186.0
46.48350,166.0
46.50850,161.0
46.53350,166.0
46.55850,180.0
46.58350,198.0
46.60850,172.0
46.63350,175.0
46.65850,176.0
46.68350,149.0
46.70850,183.0
46.73350,168.0
46.75850,162.0
46.78350,201.0
46.80850,164.0
46.83350,171.0
46.85850,196.0
46.88350,181.0
46.90850,208.0
46.93350,195.0
46.95850,196.0
46.98350,166.0
47.00850,190.0
47.03350,212.0
47.05850,196.0
47.08350,220.0
47.10850,212.0
47.13350,209.0
47.15850,234.0
47.18350,203.0
47.20850,230.0
47.23350,232.0
47.25850,245.0
47.28350,281.0
47.30850,278.0
47.33350,282.0
47.35850,286.0
47.38350,310.0
47.40850,309.0
47.43350,339.0
47.45850,365.0
47.48350,397.0
47.50850,425.0
47.53350,437.0
47.55850,486.0
47.58350,517.0
47.60850,578.0
47.63350,666.0
47.65850,746.0
47.68350,887.0
47.70850,1037.0
47.73350,1229.0
47.75850,1463.0
47.78350,1737.0
47.80850,2050.0
47.83350,2383.0
47.85850,2677.0
47.88350,3189.0
47.90850,3590.0
47.93350,3806.0
47.95850,4079.0
47.98350,4128.0
48.00850,4312.0
48.03350,4202.0
48.05850,4077.0
48.08350,3670.0
48.10850,3433.0
48.13350,3130.0
48.15850,2595.0
48.18350,2441.0
48.20850,2041.0
48.23350,1743.0
48.25850,1470.0
48.28350,1221.0
48.30850,955.0
48.33350,872.0
48.35850,736.0
48.38350,597.0
48.40850,506.0
48.43350,508.0
48.45850,426.0
48.48350,384.0
48.50850,369.0
48.53350,377.0
48.55850,341.0
48.58350,312.0
48.60850,292.0
48.63350,260.0
48.65850,268.0
48.68350,255.0
48.70850,220.0
48.73350,224.0
48.75850,237.0
48.78350,236.0
48.80850,189.0
48.83350,224.0
48.85850,222.0
48.88350,189.0
48.90850,194.0
48.93350,212.0
48.95850,201.0
48.98350,197.0
49.00850,184.0
49.03350,202.0
49.05850,189.0
49.08350,188.0
49.10850,169.0
49.13350,192.0
49.15850,154.0
49.18350,198.0
49.20850,161.0
49.23350,157.0
49.25850,162.0
49.28350,161.0
49.30850,166.0
49.33350,162.0
49.35850,159.0
49.38350,163.0
49.40850,168.0
49.43350,154.0
49.45850,156.0
49.48350,165.0
49.50850,153.0
49.53350,148.0
49.55850,147.0
49.58350,143.0
49.60850,163.0
49.63350,162.0
49.65850,159.0
49.68350,157.0
49.70850,172.0
49.73350,143.0
49.75850,143.0
49.78350,158.0
49.80850,132.0
49.83350,143.0
49.85850,147.0
49.88350,134.0
49.90850,149.0
49.93350,150.0
49.95850,136.0
49.98350,139.0
50.00850,147.0
50.03350,145.0
50.05850,147.0
50.08350,134.0
50.10850,145.0
50.13350,157.0
50.15850,159.0
50.18350,136.0
50.20850,147.0
50.23350,133.0
50.25850,148.0
50.28350,156.0
50.30850,148.0
50.33350,150.0
50.35850,146.0
50.38350,157.0
50.40850,167.0
50.43350,143.0
50.45850,146.0
50.48350,130.0
50.50850,141.0
50.53350,154.0
50.55850,166.0
50.58350,170.0
50.60850,150.0
50.63350,132.0
50.65850,133.0
50.68350,134.0
50.70850,167.0
50.73350,154.0
50.75850,135.0
50.78350,154.0
50.80850,146.0
50.83350,153.0
50.85850,144.0
50.88350,152.0
50.90850,150.0
50.93350,145.0
50.95850,153.0
50.98350,146.0
51.00850,142.0
51.03350,150.0
51.05850,154.0
51.08350,177.0
51.10850,152.0
51.13350,153.0
51.15850,148.0
51.18350,155.0
51.20850,159.0
51.23350,162.0
51.25850,170.0
51.28350,167.0
51.30850,142.0
51.33350,147.0
51.35850,152.0
51.38350,178.0
51.40850,182.0
51.43350,179.0
51.45850,165.0
51.48350,162.0
51.50850,170.0
51.53350,145.0
51.55850,161.0
51.58350,160.0
51.60850,160.0
51.63350,190.0
51.65850,173.0
51.68350,179.0
51.70850,184.0
51.73350,189.0
51.75850,184.0
51.78350,170.0
51.80850,169.0
51.83350,192.0
51.85850,174.0
51.88350,190.0
51.90850,183.0
51.93350,201.0
51.95850,198.0
51.98350,160.0
52.00850,211.0
52.03350,217.0
52.05850,181.0
52.08350,207.0
52.10850,205.0
52.13350,220.0
52.15850,235.0
52.18350,259.0
52.20850,277.0
52.23350,239.0
52.25850,264.0
52.28350,267.0
52.30850,279.0
52.33350,283.0
52.35850,309.0
52.38350,348.0
52.40850,366.0
52.43350,381.0
52.45850,416.0
52.48350,482.0
52.50850,481.0
52.53350,544.0
52.55850,647.0
52.58350,729.0
52.60850,789.0
52.63350,953.0
52.65850,1152.0
52.68350,1304.0
52.70850,1574.0
52.73350,1827.0
52.75850,2091.0
52.78350,2355.0
52.80850,2752.0
52.83350,3141.0
52.85850,3326.0
52.88350,3615.0
52.90850,3765.0
52.93350,3987.0
52.95850,3889.0
52.98350,3850.0
53.00850,3853.0
53.03350,3705.0
53.05850,3573.0
53.08350,3128.0
53.10850,3048.0
53.13350,2637.0
53.15850,2411.0
53.18350,2143.0
53.20850,1779.0
53.23350,1655.0
53.25850,1414.0
53.28350,1293.0
53.30850,1089.0
53.33350,943.0
53.35850,948.0
53.38350,738.0
53.40850,683.0
53.43350,667.0
53.45850,650.0
53.48350,578.0
53.50850,549.0
53.53350,516.0
53.55850,571.0
53.58350,566.0
53.60850,615.0
53.63350,581.0
53.65850,542.0
53.68350,563.0
53.70850,616.0
53.73350,608.0
53.75850,658.0
53.78350,666.0
53.80850,677.0
53.83350,762.0
53.85850,667.0
53.88350,758.0
53.90850,707.0
53.93350,721.0
53.95850,704.0
53.98350,745.0
54.00850,689.0
54.03350,662.0
54.05850,650.0
54.08350,619.0
54.10850,602.0
54.13350,603.0
54.15850,563.0
54.18350,572.0
54.20850,537.0
54.23350,509.0
54.25850,486.0
54.28350,552.0
54.30850,508.0
54.33350,457.0
54.35850,444.0
54.38350,478.0
54.40850,477.0
54.43350,439.0
54.45850,446.0
54.48350,428.0
54.50850,428.0
54.53350,462.0
54.55850,442.0
54.58350,501.0
54.60850,479.0
54.63350,484.0
54.65850,523.0
54.68350,519.0
54.70850,600.0
54.73350,639.0
54.75850,705.0
54.78350,808.0
54.80850,849.0
54.83350,904.0
54.85850,1054.0
54.88350,1048.0
54.90850,1149.0
54.93350,1274.0
54.95850,1260.0
54.98350,1393.0
55.00850,1340.0
55.03350,1312.0
55.05850,1277.0
55.08350,1313.0
55.10850,1177.0
55.13350,1081.0
55.15850,1024.0
55.18350,982.0
55.20850,862.0
55.23350,753.0
55.25850,680.0
55.28350,624.0
55.30850,572.0
55.33350,480.0
55.35850,472.0
55.38350,363.0
55.40850,350.0
55.43350,331.0
55.45850,289.0
55.48350,261.0
55.50850,261.0
55.53350,249.0
55.55850,230.0
55.58350,256.0
55.60850,257.0
55.63350,236.0
55.65850,209.0
55.68350,216.0
55.70850,204.0
55.73350,231.0
55.75850,208.0
55.78350,181.0
55.80850,161.0
55.83350,217.0
55.85850,202.0
55.88350,187.0
55.90850,180.0
55.93350,201.0
55.95850,210.0
55.98350,193.0
56.00850,193.0
56.03350,163.0
56.05850,195.0
56.08350,176.0
56.10850,222.0
56.13350,179.0
56.15850,187.0
56.18350,199.0
56.20850,199.0
56.23350,180.0
56.25850,195.0
56.28350,203.0
56.30850,178.0
56.33350,220.0
56.35850,188.0
56.38350,176.0
56.40850,201.0
56.43350,175.0
56.45850,183.0
56.48350,196.0
56.50850,209.0
56.53350,185.0
56.55850,162.0
56.58350,194.0
56.60850,204.0
56.63350,171.0
56.65850,174.0
56.68350,191.0
56.70850,161.0
56.73350,163.0
56.75850,165.0
56.78350,144.0
56.80850,148.0
56.83350,165.0
56.85850,165.0
56.88350,142.0
56.90850,166.0
56.93350,166.0
56.95850,121.0
56.98350,172.0
57.00850,165.0
57.03350,166.0
57.05850,162.0
57.08350,161.0
57.10850,144.0
57.13350,151.0
57.15850,162.0
57.18350,150.0
57.20850,159.0
57.23350,144.0
57.25850,167.0
57.28350,151.0
57.30850,144.0
57.33350,153.0
57.35850,153.0
57.38350,134.0
57.40850,153.0
57.43350,156.0
57.45850,149.0
57.48350,163.0
57.50850,165.0
57.53350,141.0
57.55850,153.0
57.58350,158.0
57.60850,144.0
57.63350,144.0
57.65850,159.0
57.68350,145.0
57.70850,166.0
57.73350,151.0
57.75850,147.0
57.78350,142.0
57.80850,149.0
57.83350,136.0
57.85850,155.0
57.88350,132.0
57.90850,148.0
57.93350,143.0
57.95850,128.0
57.98350,122.0
58.00850,136.0
58.03350,131.0
58.05850,145.0
58.08350,109.0
58.10850,134.0
58.13350,141.0
58.15850,131.0
58.18350,144.0
58.20850,127.0
58.23350,140.0
58.25850,147.0
58.28350,144.0
58.30850,144.0
58.33350,123.0
58.35850,134.0
58.38350,145.0
58.40850,149.0
58.43350,134.0
58.45850,125.0
58.48350,153.0
58.50850,170.0
58.53350,141.0
58.55850,128.0
58.58350,119.0
58.60850,119.0
58.63350,128.0
58.65850,122.0
58.68350,127.0
58.70850,131.0
58.73350,122.0
58.75850,116.0
58.78350,142.0
58.80850,118.0
58.83350,124.0
58.85850,129.0
58.88350,130.0
58.90850,135.0
58.93350,140.0
58.95850,138.0
58.98350,114.0
59.00850,168.0
59.03350,134.0
59.05850,119.0
59.08350,137.0
59.10850,139.0
59.13350,155.0
59.15850,131.0
59.18350,127.0
59.20850,133.0
59.23350,138.0
59.25850,134.0
59.28350,134.0
59.30850,145.0
59.33350,136.0
59.35850,129.0
59.38350,129.0
59.40850,125.0
59.43350,136.0
59.45850,162.0
59.48350,150.0
59.50850,132.0
59.53350,135.0
59.55850,148.0
59.58350,146.0
59.60850,157.0
59.63350,153.0
59.65850,145.0
59.68350,144.0
59.70850,161.0
59.73350,155.0
59.75850,146.0
59.78350,141.0
59.80850,121.0
59.83350,156.0
59.85850,143.0
59.88350,161.0
59.90850,148.0
59.93350,155.0
59.95850,141.0
59.98350,148.0
60.00850,149.0
60.03350,132.0
60.05850,128.0
60.08350,152.0
60.10850,141.0
60.13350,150.0
60.15850,147.0
60.18350,149.0
60.20850,129.0
60.23350,157.0
60.25850,150.0
60.28350,136.0
60.30850,139.0
60.33350,144.0
60.35850,154.0
60.38350,160.0
60.40850,159.0
60.43350,128.0
60.45850,138.0
60.48350,156.0
60.50850,151.0
60.53350,157.0
60.55850,149.0
60.58350,152.0
60.60850,181.0
60.63350,155.0
60.65850,135.0
60.68350,143.0
60.70850,162.0
60.73350,151.0
60.75850,120.0
60.78350,152.0
60.80850,151.0
60.83350,151.0
60.85850,169.0
60.88350,150.0
60.90850,162.0
60.93350,178.0
60.95850,178.0
60.98350,159.0
61.00850,163.0
61.03350,150.0
61.05850,168.0
61.08350,183.0
61.10850,173.0
61.13350,139.0
61.15850,178.0
61.18350,162.0
61.20850,169.0
61.23350,183.0
61.25850,166.0
61.28350,160.0
61.30850,180.0
61.33350,174.0
61.35850,180.0
61.38350,182.0
61.40850,184.0
61.43350,167.0
61.45850,198.0
61.48350,183.0
61.50850,187.0
61.53350,177.0
61.55850,192.0
61.58350,211.0
61.60850,221.0
61.63350,240.0
61.65850,218.0
61.68350,247.0
61.70850,209.0
61.73350,239.0
61.75850,272.0
61.78350,265.0
61.80850,294.0
61.83350,272.0
61.85850,299.0
61.88350,300.0
61.90850,341.0
61.93350,352.0
61.95850,372.0
61.98350,378.0
62.00850,419.0
62.03350,386.0
62.05850,432.0
62.08350,473.0
62.10850,457.0
62.13350,488.0
62.15850,475.0
62.18350,495.0
62.20850,473.0
62.23350,514.0
62.25850,495.0
62.28350,526.0
62.30850,551.0
62.33350,577.0
62.35850,612.0
62.38350,620.0
62.40850,710.0
62.43350,779.0
62.45850,800.0
62.48350,885.0
62.50850,901.0
62.53350,1094.0
62.55850,1184.0
62.58350,1242.0
62.60850,1356.0
62.63350,1462.0
62.65850,1568.0
62.68350,1764.0
62.70850,1818.0
62.73350,1803.0
62.75850,2059.0
62.78350,2181.0
62.80850,2343.0
62.83350,2284.0
62.85850,2336.0
62.88350,2364.0
62.90850,2397.0
62.93350,2374.0
62.95850,2251.0
62.98350,2140.0
63.00850,2136.0
63.03350,2047.0
63.05850,1795.0
63.08350,1667.0
63.10850,1596.0
63.13350,1440.0
63.15850,1321.0
63.18350,1200.0
63.20850,1029.0
63.23350,950.0
63.25850,840.0
63.28350,762.0
63.30850,721.0
63.33350,618.0
63.35850,561.0
63.38350,506.0
63.40850,520.0
63.43350,424.0
63.45850,377.0
63.48350,367.0
63.50850,374.0
63.53350,328.0
63.55850,298.0
63.58350,301.0
63.60850,308.0
63.63350,270.0
63.65850,291.0
63.68350,284.0
63.70850,264.0
63.73350,271.0
63.75850,253.0
63.78350,216.0
63.80850,252.0
63.83350,225.0
63.85850,233.0
63.88350,228.0
63.90850,213.0
63.93350,202.0
63.95850,194.0
63.98350,223.0
64.00850,220.0
64.03350,195.0
64.05850,188.0
64.08350,211.0
64.10850,202.0
64.13350,180.0
64.15850,188.0
64.18350,195.0
64.20850,219.0
64.23350,188.0
64.25850,202.0
64.28350,194.0
64.30850,200.0
64.33350,191.0
64.35850,173.0
64.38350,207.0
64.40850,171.0
64.43350,188.0
64.45850,150.0
64.48350,176.0
64.50850,179.0
64.53350,166.0
64.55850,193.0
64.58350,170.0
64.60850,189.0
64.63350,182.0
64.65850,173.0
64.68350,194.0
64.70850,165.0
64.73350,144.0
64.75850,174.0
64.78350,166.0
64.80850,166.0
64.83350,173.0
64.85850,167.0
64.88350,171.0
64.90850,162.0
64.93350,158.0
64.95850,166.0
64.98350,175.0
65.00850,166.0
65.03350,161.0
65.05850,191.0
65.08350,149.0
65.10850,158.0
65.13350,132.0
65.15850,173.0
65.18350,168.0
65.20850,137.0
65.23350,144.0
65.25850,143.0
65.28350,158.0
65.30850,132.0
65.33350,142.0
65.35850,170.0
65.38350,157.0
65.40850,158.0
65.43350,154.0
65.45850,137.0
65.48350,155.0
65.50850,142.0
65.53350,163.0
65.55850,150.0
65.58350,151.0
65.60850,142.0
65.63350,124.0
65.65850,170.0
65.68350,131.0
65.70850,155.0
65.73350,160.0
65.75850,149.0
65.78350,151.0
65.80850,141.0
65.83350,138.0
65.85850,150.0
65.88350,156.0
65.90850,131.0
65.93350,138.0
65.95850,134.0
65.98350,157.0
66.00850,168.0
66.03350,149.0
66.05850,147.0
66.08350,140.0
66.10850,141.0
66.13350,145.0
66.15850,122.0
66.18350,146.0
66.20850,144.0
66.23350,160.0
66.25850,138.0
66.28350,137.0
66.30850,160.0
66.33350,151.0
66.35850,138.0
66.38350,144.0
66.40850,144.0
66.43350,147.0
66.45850,149.0
66.48350,140.0
66.50850,134.0
66.53350,161.0
66.55850,160.0
66.58350,154.0
66.60850,143.0
66.63350,134.0
66.65850,141.0
66.68350,152.0
66.70850,148.0
66.73350,156.0
66.75850,143.0
66.78350,158.0
66.80850,141.0
66.83350,131.0
66.85850,145.0
66.88350,132.0
66.90850,147.0
66.93350,153.0
66.95850,138.0
66.98350,145.0
67.00850,138.0
67.03350,154.0
67.05850,167.0
67.08350,146.0
67.10850,153.0
67.13350,147.0
67.15850,142.0
67.18350,154.0
67.20850,156.0
67.23350,182.0
67.25850,152.0
67.28350,148.0
67.30850,165.0
67.33350,164.0
67.35850,145.0
67.38350,157.0
67.40850,157.0
67.43350,151.0
67.45850,173.0
67.48350,171.0
67.50850,157.0
67.53350,155.0
67.55850,138.0
67.58350,165.0
67.60850,157.0
67.63350,159.0
67.65850,167.0
67.68350,160.0
67.70850,154.0
67.73350,160.0
67.75850,156.0
67.78350,153.0
67.80850,181.0
67.83350,172.0
67.85850,151.0
67.88350,160.0
67.90850,173.0
67.93350,174.0
67.95850,175.0
67.98350,184.0
68.00850,185.0
68.03350,169.0
68.05850,176.0
68.08350,184.0
68.10850,198.0
68.13350,208.0
68.15850,179.0
68.18350,211.0
68.20850,202.0
68.23350,188.0
68.25850,210.0
68.28350,214.0
68.30850,192.0
68.33350,207.0
68.35850,207.0
68.38350,240.0
68.40850,239.0
68.43350,231.0
68.45850,267.0
68.48350,243.0
68.50850,230.0
68.53350,250.0
68.55850,269.0
68.58350,272.0
68.60850,290.0
68.63350,278.0
68.65850,283.0
68.68350,319.0
68.70850,319.0
68.73350,302.0
68.75850,305.0
68.78350,317.0
68.80850,350.0
68.83350,324.0
68.85850,339.0
68.88350,316.0
68.90850,302.0
68.93350,289.0
68.95850,277.0
68.98350,252.0
69.00850,282.0
69.03350,256.0
69.05850,296.0
69.08350,284.0
69.10850,262.0
69.13350,255.0
69.15850,256.0
69.18350,257.0
69.20850,245.0
69.23350,240.0
69.25850,253.0
69.28350,263.0
69.30850,277.0
69.33350,247.0
69.35850,265.0
69.38350,252.0
69.40850,248.0
69.43350,250.0
69.45850,256.0
69.48350,237.0
69.50850,275.0
69.53350,255.0
69.55850,278.0
69.58350,268.0
69.60850,251.0
69.63350,279.0
69.65850,276.0
69.68350,330.0
69.70850,331.0
69.73350,287.0
69.75850,313.0
69.78350,346.0
69.80850,344.0
69.83350,389.0
69.85850,435.0
69.88350,405.0
69.90850,404.0
69.93350,434.0
69.95850,487.0
69.98350,529.0
70.00850,577.0
70.03350,572.0
70.05850,648.0
70.08350,713.0
70.10850,806.0
70.13350,817.0
70.15850,842.0
70.18350,928.0
70.20850,1054.0
70.23350,1056.0
70.25850,1201.0
70.28350,1312.0
70.30850,1441.0
70.33350,1559.0
70.35850,1813.0
70.38350,1962.0
70.40850,2218.0
70.43350,2407.0
70.45850,2677.0
70.48350,2870.0
70.50850,3190.0
70.53350,3320.0
70.55850,3376.0
70.58350,3556.0
70.60850,3590.0
70.63350,3664.0
70.65850,3603.0
70.68350,3457.0
70.70850,3378.0
70.73350,3261.0
70.75850,3082.0
70.78350,2917.0
70.80850,2820.0
70.83350,2608.0
70.85850,2288.0
70.88350,2116.0
70.90850,2010.0
70.93350,1710.0
70.95850,1543.0
70.98350,1384.0
71.00850,1190.0
71.03350,1049.0
71.05850,896.0
71.08350,859.0
71.10850,746.0
71.13350,619.0
71.15850,556.0
71.18350,564.0
71.20850,490.0
71.23350,466.0
71.25850,391.0
71.28350,390.0
71.30850,319.0
71.33350,343.0
71.35850,316.0
71.38350,270.0
71.40850,279.0
71.43350,254.0
71.45850,239.0
71.48350,256.0
71.50850,279.0
71.53350,264.0
71.55850,226.0
71.58350,221.0
71.60850,211.0
71.63350,219.0
71.65850,185.0
71.68350,194.0
71.70850,177.0
71.73350,187.0
71.75850,199.0
71.78350,165.0
71.80850,178.0
71.83350,181.0
71.85850,169.0
71.88350,179.0
71.90850,187.0
71.93350,149.0
71.95850,212.0
71.98350,198.0
72.00850,174.0
72.03350,184.0
72.05850,186.0
72.08350,189.0
72.10850,146.0
72.13350,165.0
72.15850,160.0
72.18350,175.0
72.20850,161.0
72.23350,168.0
72.25850,162.0
72.28350,149.0
72.30850,180.0
72.33350,149.0
72.35850,148.0
72.38350,140.0
72.40850,170.0
72.43350,191.0
72.45850,161.0
72.48350,153.0
72.50850,171.0
72.53350,153.0
72.55850,166.0
72.58350,173.0
72.60850,137.0
72.63350,159.0
72.65850,154.0
72.68350,169.0
72.70850,176.0
72.73350,154.0
72.75850,143.0
72.78350,150.0
72.80850,172.0
72.83350,146.0
72.85850,148.0
72.88350,158.0
72.90850,160.0
72.93350,153.0
72.95850,161.0
72.98350,149.0
73.00850,161.0
73.03350,166.0
73.05850,148.0
73.08350,159.0
73.10850,161.0
73.13350,133.0
73.15850,186.0
73.18350,144.0
73.20850,149.0
73.23350,153.0
73.25850,184.0
73.28350,165.0
73.30850,147.0
73.33350,171.0
73.35850,155.0
73.38350,176.0
73.40850,145.0
73.43350,172.0
73.45850,187.0
73.48350,194.0
73.50850,204.0
73.53350,181.0
73.55850,201.0
73.58350,208.0
73.60850,206.0
73.63350,234.0
73.65850,198.0
73.68350,256.0
73.70850,224.0
73.73350,259.0
73.75850,264.0
73.78350,283.0
73.80850,274.0
73.83350,280.0
73.85850,352.0
73.88350,361.0
73.90850,385.0
73.93350,423.0
73.95850,427.0
73.98350,465.0
74.00850,490.0
74.03350,494.0
74.05850,560.0
74.08350,552.0
74.10850,571.0
74.13350,584.0
74.15850,552.0
74.18350,563.0
74.20850,529.0
74.23350,514.0
74.25850,488.0
74.28350,511.0
74.30850,488.0
74.33350,473.0
74.35850,488.0
74.38350,410.0
74.40850,386.0
74.43350,417.0
74.45850,410.0
74.48350,384.0
74.50850,341.0
74.53350,363.0
74.55850,354.0
74.58350,348.0
74.60850,318.0
74.63350,335.0
74.65850,325.0
74.68350,364.0
74.70850,373.0
74.73350,350.0
74.75850,397.0
74.78350,423.0
74.80850,388.0
74.83350,411.0
74.85850,416.0
74.88350,430.0
74.90850,462.0
74.93350,528.0
74.95850,507.0
74.98350,522.0
75.00850,520.0
75.03350,531.0
75.05850,495.0
75.08350,542.0
75.10850,543.0
75.13350,516.0
75.15850,480.0
75.18350,481.0
75.20850,509.0
75.23350,516.0
75.25850,448.0
75.28350,435.0
75.30850,453.0
75.33350,421.0
75.35850,480.0
75.38350,433.0
75.40850,437.0
75.43350,409.0
75.45850,396.0
75.48350,436.0
75.50850,418.0
75.53350,462.0
75.55850,469.0
75.58350,472.0
75.60850,471.0
75.63350,507.0
75.65850,554.0
75.68350,615.0
75.70850,623.0
75.73350,694.0
75.75850,746.0
75.78350,856.0
75.80850,930.0
75.83350,986.0
75.85850,1103.0
75.88350,1250.0
75.90850,1267.0
75.93350,1547.0
75.95850,1649.0
75.98350,1839.0
76.00850,1921.0
76.03350,2140.0
76.05850,2319.0
76.08350,2493.0
76.10850,2528.0
76.13350,2587.0
76.15850,2686.0
76.18350,2688.0
76.20850,2790.0
76.23350,2490.0
76.25850,2491.0
76.28350,2478.0
76.30850,2464.0
76.33350,2348.0
76.35850,2277.0
76.38350,2187.0
76.40850,2005.0
76.43350,1798.0
76.45850,1675.0
76.48350,1620.0
76.50850,1542.0
76.53350,1394.0
76.55850,1232.0
76.58350,1142.0
76.60850,1100.0
76.63350,968.0
76.65850,866.0
76.68350,844.0
76.70850,790.0
76.73350,722.0
76.75850,763.0
76.78350,726.0
76.80850,656.0
76.83350,720.0
76.85850,623.0
76.88350,718.0
76.90850,769.0
76.93350,751.0
76.95850,791.0
76.98350,828.0
77.00850,992.0
77.03350,1009.0
77.05850,1104.0
77.08350,1131.0
77.10850,1277.0
77.13350,1432.0
77.15850,1541.0
77.18350,1557.0
77.20850,1732.0
77.23350,1893.0
77.25850,1913.0
77.28350,1992.0
77.30850,1974.0
77.33350,2011.0
77.35850,2035.0
77.38350,1906.0
77.40850,1877.0
77.43350,1820.0
77.45850,1758.0
77.48350,1658.0
77.50850,1691.0
77.53350,1520.0
77.55850,1507.0
77.58350,1353.0
77.60850,1281.0
77.63350,1184.0
77.65850,1088.0
77.68350,1004.0
77.70850,936.0
77.73350,797.0
77.75850,755.0
77.78350,612.0
77.80850,637.0
77.83350,582.0
77.85850,514.0
77.88350,508.0
77.90850,463.0
77.93350,416.0
77.95850,382.0
77.98350,388.0
78.00850,328.0
78.03350,296.0
78.05850,300.0
78.08350,312.0
78.10850,268.0
78.13350,246.0
78.15850,217.0
78.18350,248.0
78.20850,248.0
78.23350,213.0
78.25850,213.0
78.28350,215.0
78.30850,197.0
78.33350,184.0
78.35850,185.0
78.38350,205.0
78.40850,184.0
78.43350,159.0
78.45850,166.0
78.48350,158.0
78.50850,187.0
78.53350,155.0
78.55850,173.0
78.58350,172.0
78.60850,188.0
78.63350,170.0
78.65850,153.0
78.68350,159.0
78.70850,138.0
78.73350,168.0
78.75850,163.0
78.78350,164.0
78.80850,127.0
78.83350,163.0
78.85850,140.0
78.88350,142.0
78.90850,134.0
78.93350,154.0
78.95850,137.0
78.98350,138.0
79.00850,150.0
79.03350,116.0
79.05850,139.0
79.08350,136.0
79.10850,112.0
79.13350,124.0
79.15850,153.0
79.18350,131.0
79.20850,140.0
79.23350,137.0
79.25850,124.0
79.28350,158.0
79.30850,146.0
79.33350,118.0
79.35850,139.0
79.38350,115.0
79.40850,108.0
79.43350,162.0
79.45850,139.0
79.48350,134.0
79.50850,142.0
79.53350,124.0
79.55850,135.0
79.58350,148.0
79.60850,142.0
79.63350,135.0
79.65850,148.0
79.68350,131.0
79.70850,133.0
79.73350,122.0
79.75850,128.0
79.78350,122.0
79.80850,121.0
79.83350,138.0
79.85850,141.0
79.88350,142.0
79.90850,126.0
79.93350,160.0
79.95850,133.0
79.98350,118.0
80.00850,117.0
80.03350,123.0
80.05850,114.0
80.08350,121.0
80.10850,144.0
80.13350,123.0
80.15850,120.0
80.18350,136.0
80.20850,121.0
80.23350,140.0
80.25850,109.0
80.28350,129.0
80.30850,127.0
80.33350,123.0
80.35850,127.0
80.38350,120.0
80.40850,136.0
80.43350,127.0
80.45850,132.0
80.48350,130.0
80.50850,137.0
80.53350,155.0
80.55850,150.0
80.58350,142.0
80.60850,128.0
80.63350,133.0
80.65850,132.0
80.68350,127.0
80.70850,147.0
80.73350,130.0
80.75850,119.0
80.78350,144.0
80.80850,142.0
80.83350,144.0
80.85850,116.0
80.88350,146.0
80.90850,139.0
80.93350,131.0
80.95850,133.0
80.98350,172.0
81.00850,153.0
81.03350,150.0
81.05850,134.0
81.08350,141.0
81.10850,160.0
81.13350,147.0
81.15850,167.0
81.18350,147.0
81.20850,150.0
81.23350,135.0
81.25850,147.0
81.28350,164.0
81.30850,157.0
81.33350,151.0
81.35850,144.0
81.38350,147.0
81.40850,160.0
81.43350,169.0
81.45850,145.0
81.48350,171.0
81.50850,175.0
81.53350,192.0
81.55850,172.0
81.58350,175.0
81.60850,187.0
81.63350,219.0
81.65850,204.0
81.68350,212.0
81.70850,214.0
81.73350,230.0
81.75850,282.0
81.78350,281.0
81.80850,308.0
81.83350,336.0
81.85850,354.0
81.88350,366.0
81.90850,410.0
81.93350,485.0
81.95850,517.0
81.98350,627.0
82.00850,675.0
82.03350,753.0
82.05850,930.0
82.08350,1030.0
82.10850,1098.0
82.13350,1299.0
82.15850,1425.0
82.18350,1426.0
82.20850,1597.0
82.23350,1648.0
82.25850,1680.0
82.28350,1697.0
82.30850,1612.0
82.33350,1554.0
82.35850,1586.0
82.38350,1463.0
82.40850,1415.0
82.43350,1407.0
82.45850,1369.0
82.48350,1327.0
82.50850,1229.0
82.53350,1210.0
82.55850,1128.0
82.58350,1036.0
82.60850,1030.0
82.63350,918.0
82.65850,850.0
82.68350,788.0
82.70850,677.0
82.73350,631.0
82.75850,639.0
82.78350,564.0
82.80850,482.0
82.83350,442.0
82.85850,446.0
82.88350,410.0
82.90850,392.0
82.93350,408.0
82.95850,440.0
82.98350,378.0
83.00850,352.0
83.03350,360.0
83.05850,351.0
83.08350,335.0
83.10850,304.0
83.13350,331.0
83.15850,285.0
83.18350,309.0
83.20850,268.0
83.23350,292.0
83.25850,234.0
83.28350,258.0
83.30850,206.0
83.33350,241.0
83.35850,213.0
83.38350,211.0
83.40850,202.0
83.43350,220.0
83.45850,200.0
83.48350,182.0
83.50850,207.0
83.53350,165.0
83.55850,171.0
83.58350,155.0
83.60850,144.0
83.63350,140.0
83.65850,141.0
83.68350,137.0
83.70850,132.0
83.73350,136.0
83.75850,153.0
83.78350,117.0
83.80850,126.0
83.83350,127.0
83.85850,128.0
83.88350,129.0
83.90850,131.0
83.93350,127.0
83.95850,116.0
83.98350,113.0
84.00850,122.0
84.03350,119.0
84.05850,135.0
84.08350,118.0
84.10850,119.0
84.13350,129.0
84.15850,127.0
84.18350,118.0
84.20850,122.0
84.23350,125.0
84.25850,127.0
84.28350,134.0
84.30850,128.0
84.33350,124.0
84.35850,127.0
84.38350,120.0
84.40850,109.0
84.43350,115.0
84.45850,114.0
84.48350,112.0
84.50850,127.0
84.53350,115.0
84.55850,122.0
84.58350,111.0
84.60850,106.0
84.63350,112.0
84.65850,114.0
84.68350,122.0
84.70850,110.0
84.73350,105.0
84.75850,98.0
84.78350,123.0
84.80850,113.0
84.83350,112.0
84.85850,112.0
84.88350,123.0
84.90850,107.0
84.93350,115.0
84.95850,89.0
84.98350,109.0
85.00850,95.0
85.03350,123.0
85.05850,114.0
85.08350,107.0
85.10850,107.0
85.13350,101.0
85.15850,110.0
85.18350,101.0
85.20850,105.0
85.23350,113.0
85.25850,105.0
85.28350,114.0
85.30850,87.0
85.33350,97.0
85.35850,107.0
85.38350,128.0
85.40850,100.0
85.43350,100.0
85.45850,115.0
85.48350,102.0
85.50850,99.0
85.53350,114.0
85.55850,116.0
85.58350,118.0
85.60850,109.0
85.63350,115.0
85.65850,122.0
85.68350,108.0
85.70850,124.0
85.73350,113.0
85.75850,119.0
85.78350,118.0
85.80850,116.0
85.83350,119.0
85.85850,118.0
85.88350,134.0
85.90850,105.0
85.93350,127.0
85.95850,126.0
85.98350,134.0
86.00850,137.0
86.03350,126.0
86.05850,145.0
86.08350,157.0
86.10850,135.0
86.13350,158.0
86.15850,161.0
86.18350,157.0
86.20850,183.0
86.23350,168.0
86.25850,180.0
86.28350,205.0
86.30850,189.0
86.33350,188.0
86.35850,216.0
86.38350,234.0
86.40850,225.0
86.43350,252.0
86.45850,278.0
86.48350,286.0
86.50850,305.0
86.53350,337.0
86.55850,351.0
86.58350,371.0
86.60850,411.0
86.63350,383.0
86.65850,432.0
86.68350,424.0
86.70850,433.0
86.73350,458.0
86.75850,450.0
86.78350,438.0
86.80850,404.0
86.83350,404.0
86.85850,423.0
86.88350,410.0
86.90850,364.0
86.93350,367.0
86.95850,370.0
86.98350,324.0
87.00850,290.0
87.03350,334.0
87.05850,313.0
87.08350,279.0
87.10850,284.0
87.13350,257.0
87.15850,222.0
87.18350,222.0
87.20850,192.0
87.23350,200.0
87.25850,186.0
87.28350,181.0
87.30850,178.0
87.33350,157.0
87.35850,153.0
87.38350,138.0
87.40850,133.0
87.43350,168.0
87.45850,120.0
87.48350,131.0
87.50850,113.0
87.53350,148.0
87.55850,133.0
87.58350,129.0
87.60850,106.0
87.63350,109.0
87.65850,99.0
87.68350,106.0
87.70850,107.0
87.73350,106.0
87.75850,100.0
87.78350,103.0
87.80850,112.0
87.83350,108.0
87.85850,103.0
87.88350,104.0
87.90850,110.0
87.93350,97.0
87.95850,98.0
87.98350,121.0
88.00850,94.0
88.03350,96.0
88.05850,102.0
88.08350,96.0
88.10850,101.0
88.13350,97.0
88.15850,101.0
88.18350,99.0
88.20850,87.0
88.23350,107.0
88.25850,97.0
88.28350,90.0
88.30850,99.0
88.33350,93.0
88.35850,80.0
88.38350,96.0
88.40850,95.0
88.43350,102.0
88.45850,98.0
88.48350,76.0
88.50850,95.0
88.53350,94.0
88.55850,94.0
88.58350,86.0
88.60850,67.0
88.63350,92.0
88.65850,97.0
88.68350,88.0
88.70850,104.0
88.73350,93.0
88.75850,111.0
88.78350,99.0
88.80850,93.0
88.83350,99.0
88.85850,93.0
88.88350,75.0
88.90850,86.0
88.93350,99.0
88.95850,72.0
88.98350,94.0
89.00850,96.0
89.03350,108.0
89.05850,87.0
89.08350,87.0
89.10850,85.0
89.13350,89.0
89.15850,93.0
89.18350,101.0
89.20850,84.0
89.23350,91.0
89.25850,75.0
89.28350,109.0
89.30850,95.0
89.33350,94.0
89.35850,114.0
89.38350,92.0
89.40850,114.0
89.43350,82.0
89.45850,90.0
89.48350,96.0
89.50850,97.0
89.53350,103.0
89.55850,79.0
89.58350,101.0
89.60850,94.0
89.63350,110.0
89.65850,82.0
89.68350,104.0
89.70850,85.0
89.73350,99.0
89.75850,94.0
89.78350,99.0
89.80850,79.0
89.83350,94.0
89.85850,81.0
89.88350,97.0
89.90850,104.0
89.93350,101.0
89.95850,90.0
89.98350,117.0
90.00850,82.0
90.03350,98.0
90.05850,111.0
90.08350,99.0
90.10850,96.0
90.13350,105.0
90.15850,85.0
90.18350,76.0
90.20850,105.0
90.23350,92.0
90.25850,106.0
90.28350,108.0
90.30850,96.0
90.33350,99.0
90.35850,78.0
90.38350,91.0
90.40850,94.0
90.43350,71.0
90.45850,91.0
90.48350,104.0
90.50850,87.0
90.53350,102.0
90.55850,88.0
90.58350,79.0
90.60850,108.0
90.63350,92.0
90.65850,90.0
90.68350,90.0
90.70850,77.0
90.73350,94.0
90.75850,105.0
90.78350,95.0
90.80850,93.0
90.83350,90.0
90.85850,93.0
90.88350,95.0
90.90850,100.0
90.93350,100.0
90.95850,94.0
90.98350,108.0
91.00850,111.0
91.03350,80.0
91.05850,98.0
91.08350,95.0
91.10850,107.0
91.13350,104.0
91.15850,87.0
91.18350,92.0
91.20850,118.0
91.23350,90.0
91.25850,107.0
91.28350,97.0
91.30850,95.0
91.33350,102.0
91.35850,100.0
91.38350,115.0
91.40850,102.0
91.43350,92.0
91.45850,114.0
91.48350,97.0
91.50850,92.0
91.53350,97.0
91.55850,95.0
91.58350,106.0
91.60850,109.0
91.63350,103.0
91.65850,109.0
91.68350,91.0
91.70850,96.0
91.73350,104.0
91.75850,98.0
91.78350,108.0
91.80850,92.0
91.83350,121.0
91.85850,120.0
91.88350,128.0
91.90850,104.0
91.93350,106.0
91.95850,109.0
91.98350,122.0
92.00850,123.0
92.03350,136.0
92.05850,116.0
92.08350,134.0
92.10850,153.0
92.13350,142.0
92.15850,141.0
92.18350,142.0
92.20850,191.0
92.23350,176.0
92.25850,187.0
92.28350,169.0
92.30850,213.0
92.33350,225.0
92.35850,277.0
92.38350,250.0
92.40850,300.0
92.43350,355.0
92.45850,332.0
92.48350,368.0
92.50850,399.0
92.53350,424.0
92.55850,461.0
92.58350,475.0
92.60850,506.0
92.63350,541.0
92.65850,546.0
92.68350,640.0
92.70850,561.0
92.73350,554.0
92.75850,560.0
92.78350,539.0
92.80850,575.0
92.83350,514.0
92.85850,571.0
92.88350,522.0
92.90850,485.0
92.93350,462.0
92.95850,481.0
92.98350,444.0
93.00850,448.0
93.03350,410.0
93.05850,384.0
93.08350,381.0
93.10850,372.0
93.13350,305.0
93.15850,302.0
93.18350,293.0
93.20850,258.0
93.23350,278.0
93.25850,254.0
93.28350,213.0
93.30850,214.0
93.33350,212.0
93.35850,177.0
93.38350,206.0
93.40850,163.0
93.43350,210.0
93.45850,190.0
93.48350,158.0
93.50850,149.0
93.53350,166.0
93.55850,146.0
93.58350,165.0
93.60850,136.0
93.63350,147.0
93.65850,137.0
93.68350,145.0
93.70850,119.0
93.73350,135.0
93.75850,119.0
93.78350,156.0
93.80850,145.0
93.83350,143.0
93.85850,146.0
93.88350,141.0
93.90850,176.0
93.93350,148.0
93.95850,167.0
93.98350,171.0
94.00850,152.0
94.03350,169.0
94.05850,156.0
94.08350,170.0
94.10850,167.0
94.13350,163.0
94.15850,184.0
94.18350,160.0
94.20850,187.0
94.23350,191.0
94.25850,196.0
94.28350,177.0
94.30850,158.0
94.33350,203.0
94.35850,189.0
94.38350,176.0
94.40850,144.0
94.43350,162.0
94.45850,165.0
94.48350,186.0
94.50850,163.0
94.53350,179.0
94.55850,168.0
94.58350,179.0
94.60850,156.0
94.63350,168.0
94.65850,165.0
94.68350,177.0
94.70850,169.0
94.73350,183.0
94.75850,186.0
94.78350,180.0
94.80850,209.0
94.83350,169.0
94.85850,170.0
94.88350,201.0
94.90850,215.0
94.93350,214.0
94.95850,189.0
94.98350,217.0
95.00850,214.0
95.03350,236.0
95.05850,236.0
95.08350,208.0
95.10850,235.0
95.13350,216.0
95.15850,217.0
95.18350,270.0
95.20850,232.0
95.23350,226.0
95.25850,229.0
95.28350,247.0
95.30850,217.0
95.33350,201.0
95.35850,183.0
95.38350,241.0
95.40850,217.0
95.43350,207.0
95.45850,207.0
95.48350,179.0
95.50850,193.0
95.53350,152.0
95.55850,145.0
95.58350,170.0
95.60850,128.0
95.63350,164.0
95.65850,150.0
95.68350,143.0
95.70850,133.0
95.73350,134.0
95.75850,136.0
95.78350,148.0
95.80850,129.0
95.83350,131.0
95.85850,132.0
95.88350,127.0
95.90850,118.0
95.93350,99.0
95.95850,114.0
95.98350,101.0
96.00850,114.0
96.03350,109.0
96.05850,98.0
96.08350,108.0
96.10850,107.0
96.13350,114.0
96.15850,104.0
96.18350,102.0
96.20850,79.0
96.23350,103.0
96.25850,102.0
96.28350,99.0
96.30850,122.0
96.33350,83.0
96.35850,87.0
96.38350,94.0
96.40850,103.0
96.43350,97.0
96.45850,97.0
96.48350,119.0
96.50850,106.0
96.53350,105.0
96.55850,108.0
96.58350,91.0
96.60850,99.0
96.63350,113.0
96.65850,116.0
96.68350,103.0
96.70850,106.0
96.73350,113.0
96.75850,102.0
96.78350,86.0
96.80850,130.0
96.83350,97.0
96.85850,89.0
96.88350,97.0
96.90850,101.0
96.93350,101.0
96.95850,94.0
96.98350,94.0
97.00850,88.0
97.03350,106.0
97.05850,98.0
97.08350,100.0
97.10850,98.0
97.13350,99.0
97.15850,114.0
97.18350,91.0
97.20850,102.0
97.23350,99.0
97.25850,95.0
97.28350,93.0
97.30850,86.0
97.33350,118.0
97.35850,92.0
97.38350,103.0
97.40850,98.0
97.43350,109.0
97.45850,115.0
97.48350,108.0
97.50850,106.0
97.53350,88.0
97.55850,95.0
97.58350,71.0
97.60850,89.0
97.63350,106.0
97.65850,99.0
97.68350,109.0
97.70850,106.0
97.73350,94.0
97.75850,99.0
97.78350,104.0
97.80850,112.0
97.83350,102.0
97.85850,103.0
97.88350,106.0
97.90850,90.0
97.93350,95.0
97.95850,125.0
97.98350,116.0
98.00850,115.0
98.03350,104.0
98.05850,108.0
98.08350,121.0
98.10850,129.0
98.13350,111.0
98.15850,124.0
98.18350,123.0
98.20850,128.0
98.23350,122.0
98.25850,131.0
98.28350,114.0
98.30850,144.0
98.33350,120.0
98.35850,136.0
98.38350,144.0
98.40850,129.0
98.43350,115.0
98.45850,136.0
98.48350,124.0
98.50850,105.0
98.53350,143.0
98.55850,134.0
98.58350,124.0
98.60850,131.0
98.63350,122.0
98.65850,125.0
98.68350,113.0
98.70850,127.0
98.73350,113.0
98.75850,140.0
98.78350,126.0
98.80850,119.0
98.83350,102.0
98.85850,102.0
98.88350,140.0
98.90850,150.0
98.93350,131.0
98.95850,116.0
98.98350,136.0
99.00850,112.0
99.03350,108.0
99.05850,102.0
99.08350,102.0
99.10850,108.0
99.13350,123.0
99.15850,132.0
99.18350,131.0
99.20850,119.0
99.23350,110.0
99.25850,104.0
99.28350,114.0
99.30850,130.0
99.33350,108.0
99.35850,137.0
99.38350,107.0
99.40850,113.0
99.43350,114.0
99.45850,119.0
99.48350,108.0
99.50850,116.0
99.53350,127.0
99.55850,119.0
99.58350,107.0
99.60850,99.0
99.63350,105.0
99.65850,142.0
99.68350,134.0
99.70850,129.0
99.73350,120.0
99.75850,113.0
99.78350,129.0
99.80850,126.0
99.83350,130.0
99.85850,120.0
99.88350,124.0
99.90850,126.0
99.93350,133.0
99.95850,141.0
99.98350,127.0
