[Measurement conditions]
Sample identification,
Comment - 1,"Configuration=Filmes Finos 19_1_2015, Owner=User-1, Creation date=19/01/2015 21:17:15"
Comment - 2,"Goniometer=PW3050/60 (Theta/Theta); Minimum step size 2Theta:0.001; Minimum step size Omega:0.001"
Comment - 3,"Sample stage=PW3071/xx Bracket"
Comment - 4,"Diffractometer system=XPERT-PRO"
Comment - 5,"Measurement program=C:\PANalytical\Data Collector\Programs\BraggBrentano.xrdmp, Identifier={7DCF8E5D-DA6A-4196-83ED-5F894A527A73}"
Anode material,Cu
K-Alpha1 wavelength,1.5405980
K-Alpha2 wavelength,1.5444260
Ratio K-Alpha2/K-Alpha1,0.500
Divergence slit,Fixed,0.76mm
Receiving slit,0.10
Monochromator used,YES
Generator voltage, 40
Tube current, 40
File date and time,18/May/2018 10:56
Unit cell,
h k l, 0 0 0
Scan axis,Gonio
Scan range,30.00000,80.00000
Scan step size,0.0250000
No. of points, 2000
Scan type,CONTINUOUS
Time per step,3.00
[Scan points]
Angle,Intensity
30.01250,32.0
30.03750,29.0
30.06250,27.0
30.08750,32.0
30.11250,35.0
30.13750,36.0
30.16250,26.0
30.18750,39.0
30.21250,27.0
30.23750,30.0
30.26250,33.0
30.28750,33.0
30.31250,36.0
30.33750,18.0
30.36250,30.0
30.38750,36.0
30.41250,31.0
30.43750,24.0
30.46250,31.0
30.48750,35.0
30.51250,24.0
30.53750,20.0
30.56250,28.0
30.58750,23.0
30.61250,26.0
30.63750,34.0
30.66250,31.0
30.68750,38.0
30.71250,39.0
30.73750,33.0
30.76250,26.0
30.78750,21.0
30.81250,36.0
30.83750,27.0
30.86250,39.0
30.88750,29.0
30.91250,30.0
30.93750,35.0
30.96250,27.0
30.98750,32.0
31.01250,43.0
31.03750,37.0
31.06250,33.0
31.08750,22.0
31.11250,31.0
31.13750,31.0
31.16250,25.0
31.18750,30.0
31.21250,34.0
31.23750,32.0
31.26250,25.0
31.28750,30.0
31.31250,27.0
31.33750,26.0
31.36250,30.0
31.38750,29.0
31.41250,24.0
31.43750,34.0
31.46250,22.0
31.48750,33.0
31.51250,27.0
31.53750,23.0
31.56250,32.0
31.58750,31.0
31.61250,33.0
31.63750,34.0
31.66250,27.0
31.68750,34.0
31.71250,34.0
31.73750,39.0
31.76250,25.0
31.78750,35.0
31.81250,26.0
31.83750,40.0
31.86250,26.0
31.88750,38.0
31.91250,29.0
31.93750,26.0
31.96250,27.0
31.98750,24.0
32.01250,34.0
32.03750,26.0
32.06250,30.0
32.08750,32.0
32.11250,31.0
32.13750,37.0
32.16250,36.0
32.18750,31.0
32.21250,20.0
32.23750,31.0
32.26250,37.0
32.28750,42.0
32.31250,30.0
32.33750,25.0
32.36250,31.0
32.38750,29.0
32.41250,21.0
32.43750,24.0
32.46250,44.0
32.48750,20.0
32.51250,27.0
32.53750,32.0
32.56250,33.0
32.58750,25.0
32.61250,35.0
32.63750,31.0
32.66250,27.0
32.68750,33.0
32.71250,21.0
32.73750,32.0
32.76250,30.0
32.78750,29.0
32.81250,30.0
32.83750,25.0
32.86250,28.0
32.88750,27.0
32.91250,32.0
32.93750,38.0
32.96250,30.0
32.98750,30.0
33.01250,27.0
33.03750,22.0
33.06250,27.0
33.08750,25.0
33.11250,18.0
33.13750,31.0
33.16250,31.0
33.18750,28.0
33.21250,28.0
33.23750,30.0
33.26250,40.0
33.28750,32.0
33.31250,28.0
33.33750,31.0
33.36250,30.0
33.38750,35.0
33.41250,22.0
33.43750,23.0
33.46250,35.0
33.48750,28.0
33.51250,43.0
33.53750,40.0
33.56250,27.0
33.58750,32.0
33.61250,26.0
33.63750,33.0
33.66250,43.0
33.68750,45.0
33.71250,38.0
33.73750,39.0
33.76250,42.0
33.78750,35.0
33.81250,44.0
33.83750,28.0
33.86250,30.0
33.88750,33.0
33.91250,46.0
33.93750,38.0
33.96250,44.0
33.98750,32.0
34.01250,42.0
34.03750,43.0
34.06250,31.0
34.08750,43.0
34.11250,42.0
34.13750,41.0
34.16250,46.0
34.18750,50.0
34.21250,51.0
34.23750,51.0
34.26250,56.0
34.28750,51.0
34.31250,54.0
34.33750,56.0
34.36250,73.0
34.38750,65.0
34.41250,76.0
34.43750,72.0
34.46250,91.0
34.48750,99.0
34.51250,125.0
34.53750,122.0
34.56250,155.0
34.58750,161.0
34.61250,211.0
34.63750,260.0
34.66250,326.0
34.68750,394.0
34.71250,537.0
34.73750,744.0
34.76250,880.0
34.78750,1162.0
34.81250,1392.0
34.83750,1596.0
34.86250,1882.0
34.88750,2265.0
34.91250,2318.0
34.93750,2600.0
34.96250,2593.0
34.98750,2607.0
35.01250,2587.0
35.03750,2465.0
35.06250,2311.0
35.08750,2088.0
35.11250,1825.0
35.13750,1553.0
35.16250,1251.0
35.18750,1033.0
35.21250,838.0
35.23750,698.0
35.26250,559.0
35.28750,442.0
35.31250,300.0
35.33750,293.0
35.36250,260.0
35.38750,198.0
35.41250,168.0
35.43750,150.0
35.46250,135.0
35.48750,117.0
35.51250,106.0
35.53750,93.0
35.56250,92.0
35.58750,87.0
35.61250,83.0
35.63750,85.0
35.66250,78.0
35.68750,69.0
35.71250,77.0
35.73750,88.0
35.76250,83.0
35.78750,75.0
35.81250,60.0
35.83750,60.0
35.86250,59.0
35.88750,66.0
35.91250,61.0
35.93750,66.0
35.96250,60.0
35.98750,64.0
36.01250,54.0
36.03750,60.0
36.06250,68.0
36.08750,67.0
36.11250,46.0
36.13750,58.0
36.16250,75.0
36.18750,50.0
36.21250,56.0
36.23750,54.0
36.26250,67.0
36.28750,64.0
36.31250,62.0
36.33750,74.0
36.36250,86.0
36.38750,59.0
36.41250,70.0
36.43750,77.0
36.46250,70.0
36.48750,77.0
36.51250,84.0
36.53750,80.0
36.56250,83.0
36.58750,97.0
36.61250,91.0
36.63750,87.0
36.66250,99.0
36.68750,97.0
36.71250,94.0
36.73750,104.0
36.76250,132.0
36.78750,135.0
36.81250,89.0
36.83750,127.0
36.86250,123.0
36.88750,124.0
36.91250,156.0
36.93750,122.0
36.96250,127.0
36.98750,145.0
37.01250,137.0
37.03750,135.0
37.06250,149.0
37.08750,146.0
37.11250,163.0
37.13750,161.0
37.16250,152.0
37.18750,170.0
37.21250,166.0
37.23750,158.0
37.26250,149.0
37.28750,187.0
37.31250,178.0
37.33750,169.0
37.36250,152.0
37.38750,178.0
37.41250,182.0
37.43750,190.0
37.46250,211.0
37.48750,215.0
37.51250,248.0
37.53750,237.0
37.56250,235.0
37.58750,245.0
37.61250,256.0
37.63750,288.0
37.66250,307.0
37.68750,303.0
37.71250,335.0
37.73750,348.0
37.76250,356.0
37.78750,409.0
37.81250,411.0
37.83750,403.0
37.86250,434.0
37.88750,470.0
37.91250,443.0
37.93750,441.0
37.96250,461.0
37.98750,490.0
38.01250,565.0
38.03750,503.0
38.06250,551.0
38.08750,590.0
38.11250,609.0
38.13750,703.0
38.16250,797.0
38.18750,815.0
38.21250,985.0
38.23750,1014.0
38.26250,1049.0
38.28750,1159.0
38.31250,1164.0
38.33750,1106.0
38.36250,1125.0
38.38750,1054.0
38.41250,997.0
38.43750,895.0
38.46250,902.0
38.48750,733.0
38.51250,662.0
38.53750,629.0
38.56250,526.0
38.58750,418.0
38.61250,363.0
38.63750,310.0
38.66250,252.0
38.68750,236.0
38.71250,215.0
38.73750,195.0
38.76250,182.0
38.78750,178.0
38.81250,148.0
38.83750,155.0
38.86250,157.0
38.88750,163.0
38.91250,163.0
38.93750,173.0
38.96250,160.0
38.98750,147.0
39.01250,175.0
39.03750,170.0
39.06250,153.0
39.08750,164.0
39.11250,152.0
39.13750,165.0
39.16250,168.0
39.18750,168.0
39.21250,213.0
39.23750,173.0
39.26250,180.0
39.28750,233.0
39.31250,205.0
39.33750,237.0
39.36250,255.0
39.38750,256.0
39.41250,268.0
39.43750,288.0
39.46250,294.0
39.48750,360.0
39.51250,365.0
39.53750,396.0
39.56250,405.0
39.58750,474.0
39.61250,450.0
39.63750,527.0
39.66250,591.0
39.68750,644.0
39.71250,708.0
39.73750,803.0
39.76250,969.0
39.78750,1001.0
39.81250,1175.0
39.83750,1383.0
39.86250,1541.0
39.88750,1867.0
39.91250,2121.0
39.93750,2524.0
39.96250,2650.0
39.98750,2842.0
40.01250,3018.0
40.03750,3128.0
40.06250,3163.0
40.08750,3128.0
40.11250,3009.0
40.13750,2816.0
40.16250,2692.0
40.18750,2460.0
40.21250,2110.0
40.23750,1934.0
40.26250,1628.0
40.28750,1351.0
40.31250,1168.0
40.33750,966.0
40.36250,814.0
40.38750,721.0
40.41250,574.0
40.43750,450.0
40.46250,392.0
40.48750,351.0
40.51250,252.0
40.53750,252.0
40.56250,212.0
40.58750,214.0
40.61250,189.0
40.63750,169.0
40.66250,135.0
40.68750,159.0
40.71250,129.0
40.73750,121.0
40.76250,111.0
40.78750,96.0
40.81250,89.0
40.83750,98.0
40.86250,108.0
40.88750,86.0
40.91250,90.0
40.93750,101.0
40.96250,67.0
40.98750,82.0
41.01250,73.0
41.03750,76.0
41.06250,70.0
41.08750,50.0
41.11250,64.0
41.13750,67.0
41.16250,64.0
41.18750,51.0
41.21250,64.0
41.23750,64.0
41.26250,66.0
41.28750,51.0
41.31250,57.0
41.33750,52.0
41.36250,45.0
41.38750,56.0
41.41250,47.0
41.43750,44.0
41.46250,52.0
41.48750,44.0
41.51250,55.0
41.53750,42.0
41.56250,52.0
41.58750,43.0
41.61250,53.0
41.63750,43.0
41.66250,44.0
41.68750,52.0
41.71250,50.0
41.73750,50.0
41.76250,30.0
41.78750,40.0
41.81250,33.0
41.83750,41.0
41.86250,45.0
41.88750,43.0
41.91250,41.0
41.93750,41.0
41.96250,44.0
41.98750,33.0
42.01250,40.0
42.03750,42.0
42.06250,36.0
42.08750,41.0
42.11250,45.0
42.13750,52.0
42.16250,40.0
42.18750,41.0
42.21250,23.0
42.23750,31.0
42.26250,36.0
42.28750,33.0
42.31250,25.0
42.33750,37.0
42.36250,45.0
42.38750,32.0
42.41250,34.0
42.43750,39.0
42.46250,30.0
42.48750,42.0
42.51250,35.0
42.53750,33.0
42.56250,46.0
42.58750,44.0
42.61250,32.0
42.63750,34.0
42.66250,33.0
42.68750,32.0
42.71250,31.0
42.73750,35.0
42.76250,38.0
42.78750,30.0
42.81250,35.0
42.83750,21.0
42.86250,38.0
42.88750,26.0
42.91250,32.0
42.93750,32.0
42.96250,27.0
42.98750,32.0
43.01250,32.0
43.03750,40.0
43.06250,25.0
43.08750,24.0
43.11250,32.0
43.13750,31.0
43.16250,38.0
43.18750,37.0
43.21250,29.0
43.23750,35.0
43.26250,33.0
43.28750,36.0
43.31250,32.0
43.33750,17.0
43.36250,29.0
43.38750,27.0
43.41250,31.0
43.43750,19.0
43.46250,30.0
43.48750,34.0
43.51250,24.0
43.53750,21.0
43.56250,25.0
43.58750,39.0
43.61250,26.0
43.63750,24.0
43.66250,38.0
43.68750,26.0
43.71250,30.0
43.73750,29.0
43.76250,20.0
43.78750,29.0
43.81250,31.0
43.83750,28.0
43.86250,28.0
43.88750,18.0
43.91250,17.0
43.93750,30.0
43.96250,36.0
43.98750,30.0
44.01250,23.0
44.03750,23.0
44.06250,29.0
44.08750,19.0
44.11250,22.0
44.13750,27.0
44.16250,20.0
44.18750,21.0
44.21250,36.0
44.23750,17.0
44.26250,15.0
44.28750,24.0
44.31250,29.0
44.33750,19.0
44.36250,23.0
44.38750,25.0
44.41250,32.0
44.43750,32.0
44.46250,21.0
44.48750,21.0
44.51250,28.0
44.53750,36.0
44.56250,22.0
44.58750,18.0
44.61250,17.0
44.63750,19.0
44.66250,27.0
44.68750,18.0
44.71250,21.0
44.73750,22.0
44.76250,23.0
44.78750,18.0
44.81250,25.0
44.83750,20.0
44.86250,24.0
44.88750,27.0
44.91250,16.0
44.93750,22.0
44.96250,23.0
44.98750,27.0
45.01250,21.0
45.03750,24.0
45.06250,20.0
45.08750,27.0
45.11250,20.0
45.13750,19.0
45.16250,29.0
45.18750,28.0
45.21250,15.0
45.23750,23.0
45.26250,27.0
45.28750,14.0
45.31250,22.0
45.33750,23.0
45.36250,18.0
45.38750,15.0
45.41250,11.0
45.43750,26.0
45.46250,13.0
45.48750,19.0
45.51250,14.0
45.53750,25.0
45.56250,25.0
45.58750,18.0
45.61250,18.0
45.63750,14.0
45.66250,27.0
45.68750,22.0
45.71250,16.0
45.73750,18.0
45.76250,27.0
45.78750,15.0
45.81250,29.0
45.83750,23.0
45.86250,26.0
45.88750,18.0
45.91250,14.0
45.93750,23.0
45.96250,17.0
45.98750,15.0
46.01250,19.0
46.03750,22.0
46.06250,28.0
46.08750,13.0
46.11250,25.0
46.13750,21.0
46.16250,29.0
46.18750,13.0
46.21250,20.0
46.23750,16.0
46.26250,24.0
46.28750,22.0
46.31250,28.0
46.33750,10.0
46.36250,15.0
46.38750,15.0
46.41250,26.0
46.43750,21.0
46.46250,21.0
46.48750,24.0
46.51250,14.0
46.53750,11.0
46.56250,21.0
46.58750,15.0
46.61250,24.0
46.63750,23.0
46.66250,21.0
46.68750,26.0
46.71250,14.0
46.73750,22.0
46.76250,25.0
46.78750,21.0
46.81250,21.0
46.83750,25.0
46.86250,17.0
46.88750,23.0
46.91250,24.0
46.93750,15.0
46.96250,14.0
46.98750,27.0
47.01250,23.0
47.03750,13.0
47.06250,18.0
47.08750,22.0
47.11250,16.0
47.13750,15.0
47.16250,8.0
47.18750,11.0
47.21250,25.0
47.23750,18.0
47.26250,15.0
47.28750,19.0
47.31250,27.0
47.33750,19.0
47.36250,18.0
47.38750,12.0
47.41250,19.0
47.43750,21.0
47.46250,21.0
47.48750,9.0
47.51250,21.0
47.53750,14.0
47.56250,24.0
47.58750,11.0
47.61250,19.0
47.63750,12.0
47.66250,16.0
47.68750,22.0
47.71250,16.0
47.73750,21.0
47.76250,13.0
47.78750,18.0
47.81250,28.0
47.83750,12.0
47.86250,19.0
47.88750,17.0
47.91250,16.0
47.93750,15.0
47.96250,18.0
47.98750,12.0
48.01250,9.0
48.03750,10.0
48.06250,18.0
48.08750,13.0
48.11250,19.0
48.13750,17.0
48.16250,19.0
48.18750,17.0
48.21250,26.0
48.23750,17.0
48.26250,10.0
48.28750,14.0
48.31250,12.0
48.33750,18.0
48.36250,18.0
48.38750,20.0
48.41250,24.0
48.43750,22.0
48.46250,20.0
48.48750,23.0
48.51250,22.0
48.53750,13.0
48.56250,20.0
48.58750,20.0
48.61250,18.0
48.63750,18.0
48.66250,21.0
48.68750,27.0
48.71250,23.0
48.73750,17.0
48.76250,8.0
48.78750,8.0
48.81250,19.0
48.83750,25.0
48.86250,14.0
48.88750,19.0
48.91250,13.0
48.93750,16.0
48.96250,19.0
48.98750,12.0
49.01250,24.0
49.03750,15.0
49.06250,16.0
49.08750,8.0
49.11250,18.0
49.13750,17.0
49.16250,21.0
49.18750,24.0
49.21250,15.0
49.23750,19.0
49.26250,16.0
49.28750,20.0
49.31250,21.0
49.33750,21.0
49.36250,9.0
49.38750,15.0
49.41250,17.0
49.43750,16.0
49.46250,21.0
49.48750,18.0
49.51250,15.0
49.53750,22.0
49.56250,20.0
49.58750,19.0
49.61250,15.0
49.63750,20.0
49.66250,26.0
49.68750,11.0
49.71250,16.0
49.73750,17.0
49.76250,19.0
49.78750,19.0
49.81250,13.0
49.83750,19.0
49.86250,24.0
49.88750,12.0
49.91250,18.0
49.93750,17.0
49.96250,18.0
49.98750,19.0
50.01250,15.0
50.03750,12.0
50.06250,24.0
50.08750,24.0
50.11250,24.0
50.13750,13.0
50.16250,22.0
50.18750,19.0
50.21250,12.0
50.23750,16.0
50.26250,19.0
50.28750,21.0
50.31250,13.0
50.33750,16.0
50.36250,19.0
50.38750,19.0
50.41250,19.0
50.43750,13.0
50.46250,19.0
50.48750,15.0
50.51250,21.0
50.53750,18.0
50.56250,22.0
50.58750,18.0
50.61250,13.0
50.63750,23.0
50.66250,20.0
50.68750,19.0
50.71250,12.0
50.73750,12.0
50.76250,20.0
50.78750,12.0
50.81250,15.0
50.83750,25.0
50.86250,19.0
50.88750,12.0
50.91250,13.0
50.93750,13.0
50.96250,14.0
50.98750,18.0
51.01250,18.0
51.03750,21.0
51.06250,20.0
51.08750,20.0
51.11250,25.0
51.13750,16.0
51.16250,19.0
51.18750,38.0
51.21250,13.0
51.23750,15.0
51.26250,15.0
51.28750,21.0
51.31250,17.0
51.33750,18.0
51.36250,24.0
51.38750,13.0
51.41250,17.0
51.43750,21.0
51.46250,20.0
51.48750,25.0
51.51250,22.0
51.53750,24.0
51.56250,20.0
51.58750,22.0
51.61250,23.0
51.63750,22.0
51.66250,16.0
51.68750,21.0
51.71250,19.0
51.73750,22.0
51.76250,27.0
51.78750,25.0
51.81250,34.0
51.83750,21.0
51.86250,22.0
51.88750,21.0
51.91250,27.0
51.93750,26.0
51.96250,22.0
51.98750,33.0
52.01250,28.0
52.03750,34.0
52.06250,42.0
52.08750,38.0
52.11250,31.0
52.13750,32.0
52.16250,33.0
52.18750,31.0
52.21250,32.0
52.23750,52.0
52.26250,32.0
52.28750,40.0
52.31250,32.0
52.33750,36.0
52.36250,60.0
52.38750,48.0
52.41250,32.0
52.43750,45.0
52.46250,48.0
52.48750,67.0
52.51250,47.0
52.53750,67.0
52.56250,73.0
52.58750,76.0
52.61250,93.0
52.63750,110.0
52.66250,121.0
52.68750,134.0
52.71250,159.0
52.73750,159.0
52.76250,173.0
52.78750,211.0
52.81250,241.0
52.83750,231.0
52.86250,221.0
52.88750,225.0
52.91250,278.0
52.93750,251.0
52.96250,241.0
52.98750,241.0
53.01250,241.0
53.03750,184.0
53.06250,190.0
53.08750,184.0
53.11250,138.0
53.13750,143.0
53.16250,139.0
53.18750,126.0
53.21250,109.0
53.23750,74.0
53.26250,64.0
53.28750,66.0
53.31250,66.0
53.33750,60.0
53.36250,53.0
53.38750,55.0
53.41250,54.0
53.43750,38.0
53.46250,44.0
53.48750,36.0
53.51250,38.0
53.53750,30.0
53.56250,26.0
53.58750,25.0
53.61250,27.0
53.63750,32.0
53.66250,25.0
53.68750,38.0
53.71250,26.0
53.73750,28.0
53.76250,20.0
53.78750,20.0
53.81250,26.0
53.83750,29.0
53.86250,26.0
53.88750,25.0
53.91250,20.0
53.93750,19.0
53.96250,14.0
53.98750,15.0
54.01250,22.0
54.03750,21.0
54.06250,20.0
54.08750,18.0
54.11250,20.0
54.13750,21.0
54.16250,19.0
54.18750,20.0
54.21250,19.0
54.23750,24.0
54.26250,21.0
54.28750,22.0
54.31250,26.0
54.33750,14.0
54.36250,20.0
54.38750,25.0
54.41250,21.0
54.43750,16.0
54.46250,18.0
54.48750,16.0
54.51250,13.0
54.53750,18.0
54.56250,17.0
54.58750,15.0
54.61250,17.0
54.63750,18.0
54.66250,23.0
54.68750,19.0
54.71250,13.0
54.73750,17.0
54.76250,11.0
54.78750,10.0
54.81250,14.0
54.83750,17.0
54.86250,25.0
54.88750,15.0
54.91250,21.0
54.93750,15.0
54.96250,13.0
54.98750,16.0
55.01250,16.0
55.03750,20.0
55.06250,11.0
55.08750,12.0
55.11250,5.0
55.13750,16.0
55.16250,20.0
55.18750,11.0
55.21250,13.0
55.23750,18.0
55.26250,15.0
55.28750,15.0
55.31250,10.0
55.33750,10.0
55.36250,10.0
55.38750,17.0
55.41250,14.0
55.43750,15.0
55.46250,18.0
55.48750,13.0
55.51250,16.0
55.53750,9.0
55.56250,17.0
55.58750,11.0
55.61250,17.0
55.63750,9.0
55.66250,18.0
55.68750,18.0
55.71250,7.0
55.73750,15.0
55.76250,20.0
55.78750,19.0
55.81250,14.0
55.83750,18.0
55.86250,17.0
55.88750,13.0
55.91250,19.0
55.93750,20.0
55.96250,12.0
55.98750,14.0
56.01250,15.0
56.03750,16.0
56.06250,14.0
56.08750,17.0
56.11250,11.0
56.13750,11.0
56.16250,17.0
56.18750,13.0
56.21250,13.0
56.23750,15.0
56.26250,17.0
56.28750,11.0
56.31250,17.0
56.33750,10.0
56.36250,12.0
56.38750,7.0
56.41250,15.0
56.43750,15.0
56.46250,15.0
56.48750,11.0
56.51250,22.0
56.53750,11.0
56.56250,14.0
56.58750,8.0
56.61250,26.0
56.63750,20.0
56.66250,16.0
56.68750,12.0
56.71250,10.0
56.73750,17.0
56.76250,16.0
56.78750,18.0
56.81250,18.0
56.83750,16.0
56.86250,17.0
56.88750,21.0
56.91250,24.0
56.93750,15.0
56.96250,8.0
56.98750,13.0
57.01250,13.0
57.03750,26.0
57.06250,27.0
57.08750,18.0
57.11250,16.0
57.13750,19.0
57.16250,16.0
57.18750,27.0
57.21250,22.0
57.23750,16.0
57.26250,25.0
57.28750,16.0
57.31250,17.0
57.33750,19.0
57.36250,20.0
57.38750,19.0
57.41250,33.0
57.43750,13.0
57.46250,19.0
57.48750,26.0
57.51250,20.0
57.53750,15.0
57.56250,25.0
57.58750,17.0
57.61250,12.0
57.63750,6.0
57.66250,11.0
57.68750,17.0
57.71250,12.0
57.73750,16.0
57.76250,20.0
57.78750,12.0
57.81250,17.0
57.83750,26.0
57.86250,14.0
57.88750,16.0
57.91250,10.0
57.93750,21.0
57.96250,12.0
57.98750,17.0
58.01250,18.0
58.03750,20.0
58.06250,21.0
58.08750,12.0
58.11250,15.0
58.13750,16.0
58.16250,19.0
58.18750,10.0
58.21250,21.0
58.23750,14.0
58.26250,19.0
58.28750,17.0
58.31250,16.0
58.33750,17.0
58.36250,12.0
58.38750,17.0
58.41250,18.0
58.43750,22.0
58.46250,17.0
58.48750,21.0
58.51250,19.0
58.53750,19.0
58.56250,9.0
58.58750,18.0
58.61250,11.0
58.63750,15.0
58.66250,20.0
58.68750,20.0
58.71250,19.0
58.73750,16.0
58.76250,14.0
58.78750,19.0
58.81250,13.0
58.83750,9.0
58.86250,19.0
58.88750,18.0
58.91250,19.0
58.93750,14.0
58.96250,14.0
58.98750,14.0
59.01250,25.0
59.03750,15.0
59.06250,9.0
59.08750,9.0
59.11250,14.0
59.13750,15.0
59.16250,17.0
59.18750,12.0
59.21250,16.0
59.23750,17.0
59.26250,9.0
59.28750,9.0
59.31250,13.0
59.33750,17.0
59.36250,16.0
59.38750,18.0
59.41250,18.0
59.43750,17.0
59.46250,18.0
59.48750,10.0
59.51250,19.0
59.53750,15.0
59.56250,14.0
59.58750,21.0
59.61250,13.0
59.63750,25.0
59.66250,18.0
59.68750,19.0
59.71250,14.0
59.73750,17.0
59.76250,14.0
59.78750,19.0
59.81250,23.0
59.83750,15.0
59.86250,14.0
59.88750,13.0
59.91250,20.0
59.93750,18.0
59.96250,14.0
59.98750,11.0
60.01250,24.0
60.03750,18.0
60.06250,14.0
60.08750,8.0
60.11250,22.0
60.13750,24.0
60.16250,19.0
60.18750,19.0
60.21250,18.0
60.23750,18.0
60.26250,16.0
60.28750,19.0
60.31250,17.0
60.33750,9.0
60.36250,10.0
60.38750,11.0
60.41250,13.0
60.43750,26.0
60.46250,19.0
60.48750,15.0
60.51250,18.0
60.53750,12.0
60.56250,17.0
60.58750,12.0
60.61250,21.0
60.63750,15.0
60.66250,29.0
60.68750,17.0
60.71250,22.0
60.73750,17.0
60.76250,20.0
60.78750,19.0
60.81250,15.0
60.83750,13.0
60.86250,17.0
60.88750,19.0
60.91250,12.0
60.93750,20.0
60.96250,17.0
60.98750,17.0
61.01250,18.0
61.03750,23.0
61.06250,16.0
61.08750,16.0
61.11250,16.0
61.13750,23.0
61.16250,22.0
61.18750,27.0
61.21250,20.0
61.23750,24.0
61.26250,24.0
61.28750,19.0
61.31250,12.0
61.33750,22.0
61.36250,24.0
61.38750,13.0
61.41250,20.0
61.43750,26.0
61.46250,25.0
61.48750,21.0
61.51250,17.0
61.53750,32.0
61.56250,30.0
61.58750,24.0
61.61250,26.0
61.63750,28.0
61.66250,20.0
61.68750,14.0
61.71250,27.0
61.73750,26.0
61.76250,27.0
61.78750,25.0
61.81250,22.0
61.83750,34.0
61.86250,26.0
61.88750,34.0
61.91250,34.0
61.93750,36.0
61.96250,39.0
61.98750,26.0
62.01250,40.0
62.03750,41.0
62.06250,50.0
62.08750,39.0
62.11250,44.0
62.13750,49.0
62.16250,49.0
62.18750,66.0
62.21250,64.0
62.23750,54.0
62.26250,66.0
62.28750,85.0
62.31250,89.0
62.33750,84.0
62.36250,109.0
62.38750,116.0
62.41250,129.0
62.43750,155.0
62.46250,214.0
62.48750,193.0
62.51250,263.0
62.53750,302.0
62.56250,381.0
62.58750,370.0
62.61250,427.0
62.63750,487.0
62.66250,607.0
62.68750,629.0
62.71250,724.0
62.73750,775.0
62.76250,849.0
62.78750,876.0
62.81250,845.0
62.83750,887.0
62.86250,784.0
62.88750,805.0
62.91250,720.0
62.93750,709.0
62.96250,663.0
62.98750,639.0
63.01250,612.0
63.03750,490.0
63.06250,429.0
63.08750,385.0
63.11250,347.0
63.13750,298.0
63.16250,229.0
63.18750,221.0
63.21250,183.0
63.23750,143.0
63.26250,161.0
63.28750,130.0
63.31250,101.0
63.33750,108.0
63.36250,72.0
63.38750,75.0
63.41250,65.0
63.43750,68.0
63.46250,51.0
63.48750,43.0
63.51250,46.0
63.53750,42.0
63.56250,45.0
63.58750,44.0
63.61250,43.0
63.63750,40.0
63.66250,36.0
63.68750,33.0
63.71250,36.0
63.73750,29.0
63.76250,27.0
63.78750,32.0
63.81250,34.0
63.83750,31.0
63.86250,21.0
63.88750,32.0
63.91250,34.0
63.93750,28.0
63.96250,20.0
63.98750,23.0
64.01250,22.0
64.03750,23.0
64.06250,21.0
64.08750,22.0
64.11250,33.0
64.13750,26.0
64.16250,22.0
64.18750,20.0
64.21250,21.0
64.23750,24.0
64.26250,17.0
64.28750,19.0
64.31250,16.0
64.33750,14.0
64.36250,12.0
64.38750,22.0
64.41250,23.0
64.43750,15.0
64.46250,21.0
64.48750,16.0
64.51250,18.0
64.53750,25.0
64.56250,19.0
64.58750,21.0
64.61250,26.0
64.63750,21.0
64.66250,17.0
64.68750,15.0
64.71250,18.0
64.73750,16.0
64.76250,12.0
64.78750,24.0
64.81250,14.0
64.83750,10.0
64.86250,19.0
64.88750,19.0
64.91250,22.0
64.93750,20.0
64.96250,24.0
64.98750,12.0
65.01250,12.0
65.03750,8.0
65.06250,17.0
65.08750,24.0
65.11250,15.0
65.13750,17.0
65.16250,15.0
65.18750,17.0
65.21250,11.0
65.23750,17.0
65.26250,27.0
65.28750,16.0
65.31250,24.0
65.33750,8.0
65.36250,18.0
65.38750,14.0
65.41250,20.0
65.43750,21.0
65.46250,15.0
65.48750,16.0
65.51250,17.0
65.53750,17.0
65.56250,26.0
65.58750,19.0
65.61250,14.0
65.63750,15.0
65.66250,12.0
65.68750,18.0
65.71250,23.0
65.73750,15.0
65.76250,16.0
65.78750,17.0
65.81250,21.0
65.83750,17.0
65.86250,21.0
65.88750,10.0
65.91250,13.0
65.93750,22.0
65.96250,18.0
65.98750,17.0
66.01250,15.0
66.03750,16.0
66.06250,9.0
66.08750,19.0
66.11250,14.0
66.13750,16.0
66.16250,16.0
66.18750,15.0
66.21250,13.0
66.23750,16.0
66.26250,17.0
66.28750,7.0
66.31250,17.0
66.33750,13.0
66.36250,20.0
66.38750,16.0
66.41250,18.0
66.43750,11.0
66.46250,26.0
66.48750,25.0
66.51250,14.0
66.53750,16.0
66.56250,14.0
66.58750,21.0
66.61250,17.0
66.63750,19.0
66.66250,14.0
66.68750,14.0
66.71250,17.0
66.73750,13.0
66.76250,20.0
66.78750,13.0
66.81250,17.0
66.83750,16.0
66.86250,20.0
66.88750,16.0
66.91250,19.0
66.93750,12.0
66.96250,15.0
66.98750,11.0
67.01250,16.0
67.03750,13.0
67.06250,14.0
67.08750,17.0
67.11250,10.0
67.13750,17.0
67.16250,13.0
67.18750,18.0
67.21250,21.0
67.23750,18.0
67.26250,17.0
67.28750,20.0
67.31250,12.0
67.33750,14.0
67.36250,19.0
67.38750,17.0
67.41250,20.0
67.43750,16.0
67.46250,12.0
67.48750,20.0
67.51250,18.0
67.53750,13.0
67.56250,17.0
67.58750,16.0
67.61250,10.0
67.63750,15.0
67.66250,25.0
67.68750,18.0
67.71250,14.0
67.73750,18.0
67.76250,18.0
67.78750,27.0
67.81250,15.0
67.83750,16.0
67.86250,14.0
67.88750,25.0
67.91250,24.0
67.93750,14.0
67.96250,26.0
67.98750,24.0
68.01250,18.0
68.03750,16.0
68.06250,19.0
68.08750,13.0
68.11250,25.0
68.13750,18.0
68.16250,19.0
68.18750,16.0
68.21250,13.0
68.23750,18.0
68.26250,13.0
68.28750,22.0
68.31250,15.0
68.33750,11.0
68.36250,20.0
68.38750,22.0
68.41250,17.0
68.43750,17.0
68.46250,17.0
68.48750,17.0
68.51250,14.0
68.53750,18.0
68.56250,25.0
68.58750,13.0
68.61250,25.0
68.63750,29.0
68.66250,19.0
68.68750,28.0
68.71250,15.0
68.73750,25.0
68.76250,17.0
68.78750,17.0
68.81250,19.0
68.83750,20.0
68.86250,14.0
68.88750,17.0
68.91250,22.0
68.93750,18.0
68.96250,20.0
68.98750,19.0
69.01250,23.0
69.03750,25.0
69.06250,29.0
69.08750,23.0
69.11250,25.0
69.13750,26.0
69.16250,22.0
69.18750,26.0
69.21250,20.0
69.23750,33.0
69.26250,23.0
69.28750,27.0
69.31250,22.0
69.33750,25.0
69.36250,23.0
69.38750,36.0
69.41250,27.0
69.43750,27.0
69.46250,21.0
69.48750,32.0
69.51250,28.0
69.53750,30.0
69.56250,32.0
69.58750,29.0
69.61250,41.0
69.63750,29.0
69.66250,29.0
69.68750,36.0
69.71250,30.0
69.73750,44.0
69.76250,25.0
69.78750,32.0
69.81250,30.0
69.83750,40.0
69.86250,33.0
69.88750,29.0
69.91250,42.0
69.93750,37.0
69.96250,46.0
69.98750,42.0
70.01250,44.0
70.03750,49.0
70.06250,64.0
70.08750,64.0
70.11250,58.0
70.13750,67.0
70.16250,72.0
70.18750,77.0
70.21250,92.0
70.23750,80.0
70.26250,101.0
70.28750,101.0
70.31250,103.0
70.33750,131.0
70.36250,122.0
70.38750,129.0
70.41250,165.0
70.43750,156.0
70.46250,174.0
70.48750,178.0
70.51250,175.0
70.53750,204.0
70.56250,167.0
70.58750,196.0
70.61250,186.0
70.63750,180.0
70.66250,190.0
70.68750,176.0
70.71250,164.0
70.73750,136.0
70.76250,158.0
70.78750,135.0
70.81250,119.0
70.83750,130.0
70.86250,110.0
70.88750,95.0
70.91250,91.0
70.93750,71.0
70.96250,86.0
70.98750,65.0
71.01250,58.0
71.03750,52.0
71.06250,58.0
71.08750,41.0
71.11250,47.0
71.13750,43.0
71.16250,40.0
71.18750,47.0
71.21250,39.0
71.23750,28.0
71.26250,39.0
71.28750,25.0
71.31250,28.0
71.33750,26.0
71.36250,35.0
71.38750,32.0
71.41250,28.0
71.43750,29.0
71.46250,30.0
71.48750,34.0
71.51250,21.0
71.53750,26.0
71.56250,24.0
71.58750,17.0
71.61250,30.0
71.63750,31.0
71.66250,21.0
71.68750,30.0
71.71250,22.0
71.73750,18.0
71.76250,23.0
71.78750,20.0
71.81250,15.0
71.83750,32.0
71.86250,25.0
71.88750,19.0
71.91250,19.0
71.93750,32.0
71.96250,13.0
71.98750,19.0
72.01250,25.0
72.03750,17.0
72.06250,21.0
72.08750,25.0
72.11250,21.0
72.13750,28.0
72.16250,12.0
72.18750,17.0
72.21250,21.0
72.23750,23.0
72.26250,16.0
72.28750,19.0
72.31250,13.0
72.33750,22.0
72.36250,27.0
72.38750,17.0
72.41250,22.0
72.43750,24.0
72.46250,20.0
72.48750,22.0
72.51250,25.0
72.53750,26.0
72.56250,23.0
72.58750,22.0
72.61250,19.0
72.63750,14.0
72.66250,31.0
72.68750,17.0
72.71250,19.0
72.73750,18.0
72.76250,21.0
72.78750,19.0
72.81250,25.0
72.83750,22.0
72.86250,17.0
72.88750,30.0
72.91250,25.0
72.93750,17.0
72.96250,21.0
72.98750,18.0
73.01250,31.0
73.03750,18.0
73.06250,29.0
73.08750,23.0
73.11250,20.0
73.13750,26.0
73.16250,21.0
73.18750,24.0
73.21250,26.0
73.23750,22.0
73.26250,24.0
73.28750,21.0
73.31250,22.0
73.33750,29.0
73.36250,35.0
73.38750,34.0
73.41250,30.0
73.43750,27.0
73.46250,35.0
73.48750,33.0
73.51250,33.0
73.53750,45.0
73.56250,37.0
73.58750,43.0
73.61250,62.0
73.63750,55.0
73.66250,67.0
73.68750,83.0
73.71250,86.0
73.73750,114.0
73.76250,121.0
73.78750,163.0
73.81250,152.0
73.83750,186.0
73.86250,185.0
73.88750,251.0
73.91250,224.0
73.93750,243.0
73.96250,233.0
73.98750,276.0
74.01250,251.0
74.03750,240.0
74.06250,231.0
74.08750,263.0
74.11250,202.0
74.13750,227.0
74.16250,184.0
74.18750,166.0
74.21250,158.0
74.23750,153.0
74.26250,141.0
74.28750,126.0
74.31250,128.0
74.33750,100.0
74.36250,115.0
74.38750,97.0
74.41250,74.0
74.43750,78.0
74.46250,56.0
74.48750,47.0
74.51250,55.0
74.53750,49.0
74.56250,42.0
74.58750,42.0
74.61250,44.0
74.63750,36.0
74.66250,40.0
74.68750,46.0
74.71250,44.0
74.73750,40.0
74.76250,35.0
74.78750,36.0
74.81250,29.0
74.83750,26.0
74.86250,31.0
74.88750,32.0
74.91250,38.0
74.93750,38.0
74.96250,27.0
74.98750,44.0
75.01250,38.0
75.03750,44.0
75.06250,40.0
75.08750,33.0
75.11250,35.0
75.13750,36.0
75.16250,33.0
75.18750,42.0
75.21250,38.0
75.23750,43.0
75.26250,39.0
75.28750,35.0
75.31250,49.0
75.33750,55.0
75.36250,35.0
75.38750,59.0
75.41250,48.0
75.43750,52.0
75.46250,55.0
75.48750,51.0
75.51250,54.0
75.53750,55.0
75.56250,57.0
75.58750,68.0
75.61250,83.0
75.63750,74.0
75.66250,88.0
75.68750,103.0
75.71250,106.0
75.73750,114.0
75.76250,133.0
75.78750,127.0
75.81250,169.0
75.83750,200.0
75.86250,186.0
75.88750,215.0
75.91250,225.0
75.93750,256.0
75.96250,235.0
75.98750,252.0
76.01250,259.0
76.03750,247.0
76.06250,254.0
76.08750,254.0
76.11250,270.0
76.13750,246.0
76.16250,247.0
76.18750,215.0
76.21250,214.0
76.23750,222.0
76.26250,221.0
76.28750,198.0
76.31250,193.0
76.33750,174.0
76.36250,154.0
76.38750,160.0
76.41250,145.0
76.43750,129.0
76.46250,121.0
76.48750,116.0
76.51250,120.0
76.53750,101.0
76.56250,122.0
76.58750,106.0
76.61250,108.0
76.63750,109.0
76.66250,118.0
76.68750,119.0
76.71250,126.0
76.73750,141.0
76.76250,134.0
76.78750,153.0
76.81250,163.0
76.83750,204.0
76.86250,221.0
76.88750,232.0
76.91250,255.0
76.93750,288.0
76.96250,376.0
76.98750,411.0
77.01250,491.0
77.03750,550.0
77.06250,583.0
77.08750,608.0
77.11250,719.0
77.13750,689.0
77.16250,764.0
77.18750,779.0
77.21250,729.0
77.23750,754.0
77.26250,725.0
77.28750,692.0
77.31250,636.0
77.33750,624.0
77.36250,640.0
77.38750,600.0
77.41250,528.0
77.43750,500.0
77.46250,460.0
77.48750,414.0
77.51250,396.0
77.53750,315.0
77.56250,284.0
77.58750,235.0
77.61250,225.0
77.63750,196.0
77.66250,183.0
77.68750,170.0
77.71250,115.0
77.73750,111.0
77.76250,94.0
77.78750,112.0
77.81250,92.0
77.83750,73.0
77.86250,75.0
77.88750,60.0
77.91250,66.0
77.93750,72.0
77.96250,56.0
77.98750,43.0
78.01250,59.0
78.03750,52.0
78.06250,45.0
78.08750,34.0
78.11250,31.0
78.13750,43.0
78.16250,35.0
78.18750,41.0
78.21250,35.0
78.23750,34.0
78.26250,15.0
78.28750,38.0
78.31250,30.0
78.33750,37.0
78.36250,30.0
78.38750,30.0
78.41250,32.0
78.43750,31.0
78.46250,21.0
78.48750,36.0
78.51250,11.0
78.53750,29.0
78.56250,18.0
78.58750,43.0
78.61250,42.0
78.63750,23.0
78.66250,31.0
78.68750,21.0
78.71250,30.0
78.73750,21.0
78.76250,26.0
78.78750,27.0
78.81250,22.0
78.83750,21.0
78.86250,23.0
78.88750,25.0
78.91250,18.0
78.93750,21.0
78.96250,16.0
78.98750,25.0
79.01250,29.0
79.03750,20.0
79.06250,28.0
79.08750,28.0
79.11250,18.0
79.13750,17.0
79.16250,21.0
79.18750,22.0
79.21250,22.0
79.23750,29.0
79.26250,23.0
79.28750,20.0
79.31250,19.0
79.33750,17.0
79.36250,24.0
79.38750,25.0
79.41250,19.0
79.43750,25.0
79.46250,24.0
79.48750,20.0
79.51250,28.0
79.53750,13.0
79.56250,19.0
79.58750,17.0
79.61250,20.0
79.63750,19.0
79.66250,21.0
79.68750,21.0
79.71250,14.0
79.73750,13.0
79.76250,14.0
79.78750,20.0
79.81250,13.0
79.83750,23.0
79.86250,19.0
79.88750,11.0
79.91250,17.0
79.93750,22.0
79.96250,27.0
79.98750,19.0
