[Measurement conditions]
Sample identification,
Comment - 1,"Configuration=Filmes Finos 19_1_2015, Owner=User-1, Creation date=19/01/2015 21:17:15"
Comment - 2,"Goniometer=PW3050/60 (Theta/Theta); Minimum step size 2Theta:0.001; Minimum step size Omega:0.001"
Comment - 3,"Sample stage=PW3071/xx Bracket"
Comment - 4,"Diffractometer system=XPERT-PRO"
Comment - 5,"Measurement program=C:\PANalytical\Data Collector\Programs\BraggBrentano.xrdmp, Identifier={1069A1B4-F515-4840-9AC8-848F644ED6C5}"
Anode material,Cu
K-Alpha1 wavelength,1.5405980
K-Alpha2 wavelength,1.5444260
Ratio K-Alpha2/K-Alpha1,0.500
Divergence slit,Fixed,0.76mm
Receiving slit,0.10
Monochromator used,YES
Generator voltage, 40
Tube current, 40
File date and time,13/Jun/2018 11:02
Unit cell,
h k l, 0 0 0
Scan axis,Gonio
Scan range,20.00000,80.00000
Scan step size,0.0120000
No. of points, 5000
Scan type,CONTINUOUS
Time per step,1.50
[Scan points]
Angle,Intensity
20.00600,34.0
20.01800,40.0
20.03000,24.0
20.04200,33.0
20.05400,35.0
20.06600,42.0
20.07800,35.0
20.09000,31.0
20.10200,42.0
20.11400,34.0
20.12600,35.0
20.13800,25.0
20.15000,35.0
20.16200,32.0
20.17400,36.0
20.18600,24.0
20.19800,30.0
20.21000,33.0
20.22200,31.0
20.23400,34.0
20.24600,35.0
20.25800,38.0
20.27000,30.0
20.28200,33.0
20.29400,34.0
20.30600,48.0
20.31800,35.0
20.33000,39.0
20.34200,31.0
20.35400,35.0
20.36600,38.0
20.37800,44.0
20.39000,29.0
20.40200,40.0
20.41400,26.0
20.42600,35.0
20.43800,36.0
20.45000,43.0
20.46200,31.0
20.47400,36.0
20.48600,38.0
20.49800,32.0
20.51000,38.0
20.52200,49.0
20.53400,40.0
20.54600,42.0
20.55800,39.0
20.57000,32.0
20.58200,38.0
20.59400,38.0
20.60600,38.0
20.61800,41.0
20.63000,40.0
20.64200,24.0
20.65400,30.0
20.66600,31.0
20.67800,32.0
20.69000,29.0
20.70200,23.0
20.71400,34.0
20.72600,44.0
20.73800,39.0
20.75000,32.0
20.76200,33.0
20.77400,49.0
20.78600,25.0
20.79800,44.0
20.81000,28.0
20.82200,39.0
20.83400,31.0
20.84600,44.0
20.85800,35.0
20.87000,32.0
20.88200,25.0
20.89400,29.0
20.90600,31.0
20.91800,32.0
20.93000,34.0
20.94200,23.0
20.95400,27.0
20.96600,35.0
20.97800,37.0
20.99000,41.0
21.00200,37.0
21.01400,35.0
21.02600,41.0
21.03800,35.0
21.05000,34.0
21.06200,35.0
21.07400,33.0
21.08600,37.0
21.09800,38.0
21.11000,33.0
21.12200,42.0
21.13400,35.0
21.14600,31.0
21.15800,24.0
21.17000,31.0
21.18200,39.0
21.19400,31.0
21.20600,39.0
21.21800,38.0
21.23000,39.0
21.24200,34.0
21.25400,31.0
21.26600,37.0
21.27800,38.0
21.29000,36.0
21.30200,37.0
21.31400,34.0
21.32600,28.0
21.33800,42.0
21.35000,38.0
21.36200,23.0
21.37400,41.0
21.38600,39.0
21.39800,37.0
21.41000,36.0
21.42200,27.0
21.43400,35.0
21.44600,27.0
21.45800,33.0
21.47000,31.0
21.48200,24.0
21.49400,25.0
21.50600,40.0
21.51800,28.0
21.53000,24.0
21.54200,31.0
21.55400,31.0
21.56600,30.0
21.57800,26.0
21.59000,30.0
21.60200,26.0
21.61400,22.0
21.62600,27.0
21.63800,36.0
21.65000,36.0
21.66200,29.0
21.67400,37.0
21.68600,34.0
21.69800,29.0
21.71000,33.0
21.72200,30.0
21.73400,39.0
21.74600,40.0
21.75800,26.0
21.77000,37.0
21.78200,24.0
21.79400,35.0
21.80600,27.0
21.81800,39.0
21.83000,32.0
21.84200,38.0
21.85400,33.0
21.86600,32.0
21.87800,32.0
21.89000,42.0
21.90200,46.0
21.91400,30.0
21.92600,31.0
21.93800,37.0
21.95000,31.0
21.96200,34.0
21.97400,49.0
21.98600,29.0
21.99800,34.0
22.01000,27.0
22.02200,30.0
22.03400,27.0
22.04600,41.0
22.05800,30.0
22.07000,29.0
22.08200,29.0
22.09400,34.0
22.10600,29.0
22.11800,34.0
22.13000,35.0
22.14200,30.0
22.15400,32.0
22.16600,37.0
22.17800,35.0
22.19000,27.0
22.20200,46.0
22.21400,33.0
22.22600,31.0
22.23800,38.0
22.25000,33.0
22.26200,27.0
22.27400,27.0
22.28600,32.0
22.29800,41.0
22.31000,32.0
22.32200,19.0
22.33400,23.0
22.34600,34.0
22.35800,25.0
22.37000,27.0
22.38200,32.0
22.39400,19.0
22.40600,38.0
22.41800,29.0
22.43000,36.0
22.44200,29.0
22.45400,26.0
22.46600,30.0
22.47800,26.0
22.49000,30.0
22.50200,29.0
22.51400,36.0
22.52600,37.0
22.53800,37.0
22.55000,33.0
22.56200,33.0
22.57400,31.0
22.58600,33.0
22.59800,26.0
22.61000,36.0
22.62200,24.0
22.63400,27.0
22.64600,26.0
22.65800,25.0
22.67000,40.0
22.68200,25.0
22.69400,28.0
22.70600,24.0
22.71800,28.0
22.73000,27.0
22.74200,39.0
22.75400,26.0
22.76600,24.0
22.77800,40.0
22.79000,30.0
22.80200,38.0
22.81400,28.0
22.82600,31.0
22.83800,27.0
22.85000,26.0
22.86200,37.0
22.87400,37.0
22.88600,30.0
22.89800,32.0
22.91000,27.0
22.92200,26.0
22.93400,29.0
22.94600,30.0
22.95800,18.0
22.97000,31.0
22.98200,35.0
22.99400,38.0
23.00600,41.0
23.01800,30.0
23.03000,36.0
23.04200,27.0
23.05400,34.0
23.06600,30.0
23.07800,29.0
23.09000,30.0
23.10200,38.0
23.11400,29.0
23.12600,39.0
23.13800,20.0
23.15000,20.0
23.16200,22.0
23.17400,24.0
23.18600,21.0
23.19800,30.0
23.21000,33.0
23.22200,22.0
23.23400,27.0
23.24600,32.0
23.25800,32.0
23.27000,25.0
23.28200,32.0
23.29400,28.0
23.30600,34.0
23.31800,19.0
23.33000,23.0
23.34200,31.0
23.35400,29.0
23.36600,30.0
23.37800,28.0
23.39000,23.0
23.40200,28.0
23.41400,34.0
23.42600,36.0
23.43800,37.0
23.45000,33.0
23.46200,31.0
23.47400,47.0
23.48600,36.0
23.49800,21.0
23.51000,34.0
23.52200,16.0
23.53400,34.0
23.54600,31.0
23.55800,33.0
23.57000,25.0
23.58200,20.0
23.59400,20.0
23.60600,22.0
23.61800,23.0
23.63000,23.0
23.64200,27.0
23.65400,27.0
23.66600,14.0
23.67800,24.0
23.69000,28.0
23.70200,26.0
23.71400,35.0
23.72600,34.0
23.73800,32.0
23.75000,29.0
23.76200,30.0
23.77400,30.0
23.78600,28.0
23.79800,27.0
23.81000,33.0
23.82200,31.0
23.83400,36.0
23.84600,26.0
23.85800,32.0
23.87000,30.0
23.88200,22.0
23.89400,34.0
23.90600,29.0
23.91800,27.0
23.93000,24.0
23.94200,31.0
23.95400,22.0
23.96600,23.0
23.97800,20.0
23.99000,21.0
24.00200,21.0
24.01400,25.0
24.02600,29.0
24.03800,20.0
24.05000,30.0
24.06200,33.0
24.07400,32.0
24.08600,40.0
24.09800,25.0
24.11000,21.0
24.12200,27.0
24.13400,34.0
24.14600,28.0
24.15800,35.0
24.17000,35.0
24.18200,30.0
24.19400,33.0
24.20600,33.0
24.21800,32.0
24.23000,26.0
24.24200,40.0
24.25400,35.0
24.26600,25.0
24.27800,30.0
24.29000,31.0
24.30200,39.0
24.31400,27.0
24.32600,31.0
24.33800,28.0
24.35000,19.0
24.36200,25.0
24.37400,26.0
24.38600,22.0
24.39800,18.0
24.41000,25.0
24.42200,31.0
24.43400,30.0
24.44600,19.0
24.45800,21.0
24.47000,25.0
24.48200,14.0
24.49400,26.0
24.50600,31.0
24.51800,34.0
24.53000,29.0
24.54200,31.0
24.55400,25.0
24.56600,33.0
24.57800,39.0
24.59000,24.0
24.60200,27.0
24.61400,29.0
24.62600,29.0
24.63800,30.0
24.65000,25.0
24.66200,28.0
24.67400,31.0
24.68600,24.0
24.69800,37.0
24.71000,27.0
24.72200,26.0
24.73400,30.0
24.74600,33.0
24.75800,24.0
24.77000,24.0
24.78200,29.0
24.79400,36.0
24.80600,29.0
24.81800,19.0
24.83000,26.0
24.84200,29.0
24.85400,28.0
24.86600,25.0
24.87800,26.0
24.89000,32.0
24.90200,31.0
24.91400,30.0
24.92600,33.0
24.93800,36.0
24.95000,32.0
24.96200,28.0
24.97400,19.0
24.98600,32.0
24.99800,33.0
25.01000,25.0
25.02200,32.0
25.03400,23.0
25.04600,24.0
25.05800,29.0
25.07000,23.0
25.08200,22.0
25.09400,29.0
25.10600,22.0
25.11800,41.0
25.13000,37.0
25.14200,28.0
25.15400,25.0
25.16600,30.0
25.17800,17.0
25.19000,27.0
25.20200,31.0
25.21400,28.0
25.22600,26.0
25.23800,31.0
25.25000,19.0
25.26200,30.0
25.27400,32.0
25.28600,22.0
25.29800,16.0
25.31000,34.0
25.32200,25.0
25.33400,19.0
25.34600,30.0
25.35800,22.0
25.37000,21.0
25.38200,23.0
25.39400,25.0
25.40600,28.0
25.41800,21.0
25.43000,30.0
25.44200,24.0
25.45400,18.0
25.46600,21.0
25.47800,29.0
25.49000,23.0
25.50200,21.0
25.51400,32.0
25.52600,24.0
25.53800,25.0
25.55000,24.0
25.56200,26.0
25.57400,22.0
25.58600,29.0
25.59800,28.0
25.61000,27.0
25.62200,18.0
25.63400,23.0
25.64600,38.0
25.65800,31.0
25.67000,28.0
25.68200,34.0
25.69400,33.0
25.70600,31.0
25.71800,18.0
25.73000,32.0
25.74200,17.0
25.75400,42.0
25.76600,27.0
25.77800,27.0
25.79000,27.0
25.80200,26.0
25.81400,25.0
25.82600,15.0
25.83800,30.0
25.85000,30.0
25.86200,30.0
25.87400,23.0
25.88600,20.0
25.89800,37.0
25.91000,21.0
25.92200,35.0
25.93400,24.0
25.94600,40.0
25.95800,26.0
25.97000,40.0
25.98200,25.0
25.99400,28.0
26.00600,30.0
26.01800,23.0
26.03000,19.0
26.04200,21.0
26.05400,35.0
26.06600,20.0
26.07800,33.0
26.09000,24.0
26.10200,37.0
26.11400,18.0
26.12600,25.0
26.13800,32.0
26.15000,23.0
26.16200,27.0
26.17400,27.0
26.18600,27.0
26.19800,22.0
26.21000,27.0
26.22200,33.0
26.23400,21.0
26.24600,27.0
26.25800,23.0
26.27000,24.0
26.28200,29.0
26.29400,23.0
26.30600,27.0
26.31800,25.0
26.33000,21.0
26.34200,24.0
26.35400,44.0
26.36600,24.0
26.37800,22.0
26.39000,19.0
26.40200,25.0
26.41400,19.0
26.42600,25.0
26.43800,31.0
26.45000,29.0
26.46200,23.0
26.47400,24.0
26.48600,19.0
26.49800,18.0
26.51000,18.0
26.52200,33.0
26.53400,18.0
26.54600,15.0
26.55800,33.0
26.57000,21.0
26.58200,25.0
26.59400,25.0
26.60600,23.0
26.61800,27.0
26.63000,29.0
26.64200,25.0
26.65400,31.0
26.66600,31.0
26.67800,26.0
26.69000,29.0
26.70200,26.0
26.71400,27.0
26.72600,26.0
26.73800,24.0
26.75000,37.0
26.76200,23.0
26.77400,30.0
26.78600,22.0
26.79800,17.0
26.81000,23.0
26.82200,24.0
26.83400,25.0
26.84600,27.0
26.85800,25.0
26.87000,16.0
26.88200,33.0
26.89400,30.0
26.90600,30.0
26.91800,24.0
26.93000,26.0
26.94200,28.0
26.95400,29.0
26.96600,23.0
26.97800,32.0
26.99000,35.0
27.00200,28.0
27.01400,28.0
27.02600,31.0
27.03800,26.0
27.05000,29.0
27.06200,21.0
27.07400,37.0
27.08600,34.0
27.09800,30.0
27.11000,14.0
27.12200,24.0
27.13400,24.0
27.14600,25.0
27.15800,19.0
27.17000,21.0
27.18200,24.0
27.19400,25.0
27.20600,24.0
27.21800,27.0
27.23000,29.0
27.24200,35.0
27.25400,27.0
27.26600,25.0
27.27800,25.0
27.29000,26.0
27.30200,20.0
27.31400,30.0
27.32600,26.0
27.33800,35.0
27.35000,27.0
27.36200,21.0
27.37400,28.0
27.38600,22.0
27.39800,32.0
27.41000,30.0
27.42200,27.0
27.43400,26.0
27.44600,24.0
27.45800,26.0
27.47000,20.0
27.48200,24.0
27.49400,19.0
27.50600,24.0
27.51800,23.0
27.53000,31.0
27.54200,30.0
27.55400,23.0
27.56600,23.0
27.57800,20.0
27.59000,21.0
27.60200,24.0
27.61400,33.0
27.62600,29.0
27.63800,26.0
27.65000,21.0
27.66200,19.0
27.67400,20.0
27.68600,26.0
27.69800,33.0
27.71000,33.0
27.72200,19.0
27.73400,21.0
27.74600,18.0
27.75800,19.0
27.77000,30.0
27.78200,30.0
27.79400,14.0
27.80600,19.0
27.81800,29.0
27.83000,20.0
27.84200,23.0
27.85400,28.0
27.86600,24.0
27.87800,28.0
27.89000,30.0
27.90200,26.0
27.91400,19.0
27.92600,27.0
27.93800,24.0
27.95000,26.0
27.96200,15.0
27.97400,19.0
27.98600,24.0
27.99800,31.0
28.01000,24.0
28.02200,30.0
28.03400,30.0
28.04600,20.0
28.05800,24.0
28.07000,29.0
28.08200,32.0
28.09400,27.0
28.10600,33.0
28.11800,24.0
28.13000,33.0
28.14200,26.0
28.15400,21.0
28.16600,33.0
28.17800,22.0
28.19000,24.0
28.20200,27.0
28.21400,28.0
28.22600,25.0
28.23800,26.0
28.25000,36.0
28.26200,19.0
28.27400,27.0
28.28600,34.0
28.29800,26.0
28.31000,30.0
28.32200,33.0
28.33400,24.0
28.34600,27.0
28.35800,23.0
28.37000,33.0
28.38200,27.0
28.39400,29.0
28.40600,25.0
28.41800,22.0
28.43000,21.0
28.44200,26.0
28.45400,32.0
28.46600,27.0
28.47800,33.0
28.49000,16.0
28.50200,23.0
28.51400,15.0
28.52600,20.0
28.53800,20.0
28.55000,27.0
28.56200,26.0
28.57400,30.0
28.58600,29.0
28.59800,17.0
28.61000,32.0
28.62200,22.0
28.63400,28.0
28.64600,25.0
28.65800,27.0
28.67000,32.0
28.68200,22.0
28.69400,30.0
28.70600,24.0
28.71800,22.0
28.73000,22.0
28.74200,20.0
28.75400,21.0
28.76600,23.0
28.77800,26.0
28.79000,26.0
28.80200,25.0
28.81400,36.0
28.82600,19.0
28.83800,21.0
28.85000,21.0
28.86200,23.0
28.87400,32.0
28.88600,28.0
28.89800,21.0
28.91000,37.0
28.92200,27.0
28.93400,29.0
28.94600,27.0
28.95800,19.0
28.97000,26.0
28.98200,23.0
28.99400,22.0
29.00600,25.0
29.01800,28.0
29.03000,22.0
29.04200,30.0
29.05400,32.0
29.06600,26.0
29.07800,42.0
29.09000,25.0
29.10200,24.0
29.11400,18.0
29.12600,26.0
29.13800,25.0
29.15000,29.0
29.16200,33.0
29.17400,20.0
29.18600,25.0
29.19800,18.0
29.21000,24.0
29.22200,37.0
29.23400,19.0
29.24600,24.0
29.25800,19.0
29.27000,23.0
29.28200,27.0
29.29400,20.0
29.30600,19.0
29.31800,27.0
29.33000,22.0
29.34200,19.0
29.35400,26.0
29.36600,21.0
29.37800,37.0
29.39000,24.0
29.40200,18.0
29.41400,24.0
29.42600,21.0
29.43800,17.0
29.45000,21.0
29.46200,25.0
29.47400,22.0
29.48600,15.0
29.49800,35.0
29.51000,36.0
29.52200,25.0
29.53400,21.0
29.54600,30.0
29.55800,24.0
29.57000,33.0
29.58200,20.0
29.59400,24.0
29.60600,20.0
29.61800,21.0
29.63000,34.0
29.64200,19.0
29.65400,26.0
29.66600,21.0
29.67800,28.0
29.69000,25.0
29.70200,27.0
29.71400,25.0
29.72600,23.0
29.73800,18.0
29.75000,27.0
29.76200,22.0
29.77400,15.0
29.78600,19.0
29.79800,26.0
29.81000,20.0
29.82200,17.0
29.83400,23.0
29.84600,21.0
29.85800,29.0
29.87000,22.0
29.88200,28.0
29.89400,21.0
29.90600,18.0
29.91800,23.0
29.93000,22.0
29.94200,21.0
29.95400,28.0
29.96600,29.0
29.97800,28.0
29.99000,19.0
30.00200,29.0
30.01400,19.0
30.02600,22.0
30.03800,29.0
30.05000,19.0
30.06200,27.0
30.07400,27.0
30.08600,24.0
30.09800,19.0
30.11000,15.0
30.12200,25.0
30.13400,21.0
30.14600,19.0
30.15800,35.0
30.17000,24.0
30.18200,19.0
30.19400,22.0
30.20600,24.0
30.21800,23.0
30.23000,29.0
30.24200,21.0
30.25400,24.0
30.26600,24.0
30.27800,28.0
30.29000,29.0
30.30200,16.0
30.31400,20.0
30.32600,23.0
30.33800,29.0
30.35000,16.0
30.36200,22.0
30.37400,23.0
30.38600,23.0
30.39800,26.0
30.41000,33.0
30.42200,26.0
30.43400,20.0
30.44600,31.0
30.45800,25.0
30.47000,20.0
30.48200,24.0
30.49400,22.0
30.50600,23.0
30.51800,24.0
30.53000,22.0
30.54200,23.0
30.55400,23.0
30.56600,22.0
30.57800,23.0
30.59000,18.0
30.60200,31.0
30.61400,21.0
30.62600,25.0
30.63800,25.0
30.65000,24.0
30.66200,33.0
30.67400,28.0
30.68600,27.0
30.69800,23.0
30.71000,23.0
30.72200,15.0
30.73400,36.0
30.74600,31.0
30.75800,28.0
30.77000,34.0
30.78200,23.0
30.79400,22.0
30.80600,26.0
30.81800,21.0
30.83000,24.0
30.84200,24.0
30.85400,30.0
30.86600,29.0
30.87800,24.0
30.89000,17.0
30.90200,17.0
30.91400,29.0
30.92600,28.0
30.93800,22.0
30.95000,26.0
30.96200,20.0
30.97400,26.0
30.98600,23.0
30.99800,30.0
31.01000,26.0
31.02200,21.0
31.03400,30.0
31.04600,25.0
31.05800,22.0
31.07000,25.0
31.08200,15.0
31.09400,16.0
31.10600,20.0
31.11800,17.0
31.13000,25.0
31.14200,25.0
31.15400,25.0
31.16600,25.0
31.17800,22.0
31.19000,26.0
31.20200,24.0
31.21400,23.0
31.22600,31.0
31.23800,35.0
31.25000,29.0
31.26200,34.0
31.27400,20.0
31.28600,35.0
31.29800,31.0
31.31000,28.0
31.32200,28.0
31.33400,26.0
31.34600,36.0
31.35800,29.0
31.37000,33.0
31.38200,33.0
31.39400,25.0
31.40600,26.0
31.41800,36.0
31.43000,28.0
31.44200,33.0
31.45400,29.0
31.46600,30.0
31.47800,28.0
31.49000,31.0
31.50200,25.0
31.51400,29.0
31.52600,32.0
31.53800,22.0
31.55000,17.0
31.56200,16.0
31.57400,32.0
31.58600,28.0
31.59800,20.0
31.61000,26.0
31.62200,27.0
31.63400,32.0
31.64600,30.0
31.65800,23.0
31.67000,34.0
31.68200,21.0
31.69400,13.0
31.70600,26.0
31.71800,23.0
31.73000,25.0
31.74200,18.0
31.75400,22.0
31.76600,23.0
31.77800,31.0
31.79000,19.0
31.80200,28.0
31.81400,23.0
31.82600,19.0
31.83800,26.0
31.85000,23.0
31.86200,22.0
31.87400,24.0
31.88600,32.0
31.89800,23.0
31.91000,27.0
31.92200,24.0
31.93400,24.0
31.94600,23.0
31.95800,26.0
31.97000,20.0
31.98200,29.0
31.99400,27.0
32.00600,25.0
32.01800,22.0
32.03000,31.0
32.04200,28.0
32.05400,18.0
32.06600,23.0
32.07800,21.0
32.09000,18.0
32.10200,28.0
32.11400,31.0
32.12600,25.0
32.13800,27.0
32.15000,28.0
32.16200,28.0
32.17400,26.0
32.18600,20.0
32.19800,22.0
32.21000,25.0
32.22200,21.0
32.23400,21.0
32.24600,24.0
32.25800,21.0
32.27000,26.0
32.28200,21.0
32.29400,24.0
32.30600,29.0
32.31800,28.0
32.33000,20.0
32.34200,31.0
32.35400,27.0
32.36600,20.0
32.37800,27.0
32.39000,18.0
32.40200,23.0
32.41400,19.0
32.42600,32.0
32.43800,19.0
32.45000,17.0
32.46200,25.0
32.47400,22.0
32.48600,17.0
32.49800,17.0
32.51000,26.0
32.52200,20.0
32.53400,15.0
32.54600,15.0
32.55800,25.0
32.57000,21.0
32.58200,17.0
32.59400,28.0
32.60600,28.0
32.61800,26.0
32.63000,31.0
32.64200,24.0
32.65400,18.0
32.66600,19.0
32.67800,31.0
32.69000,19.0
32.70200,21.0
32.71400,17.0
32.72600,29.0
32.73800,19.0
32.75000,24.0
32.76200,25.0
32.77400,18.0
32.78600,24.0
32.79800,23.0
32.81000,26.0
32.82200,21.0
32.83400,22.0
32.84600,27.0
32.85800,21.0
32.87000,22.0
32.88200,28.0
32.89400,21.0
32.90600,29.0
32.91800,26.0
32.93000,22.0
32.94200,22.0
32.95400,25.0
32.96600,22.0
32.97800,11.0
32.99000,26.0
33.00200,25.0
33.01400,21.0
33.02600,24.0
33.03800,16.0
33.05000,30.0
33.06200,14.0
33.07400,37.0
33.08600,19.0
33.09800,22.0
33.11000,19.0
33.12200,32.0
33.13400,26.0
33.14600,16.0
33.15800,26.0
33.17000,28.0
33.18200,20.0
33.19400,32.0
33.20600,22.0
33.21800,26.0
33.23000,20.0
33.24200,39.0
33.25400,15.0
33.26600,27.0
33.27800,22.0
33.29000,26.0
33.30200,16.0
33.31400,19.0
33.32600,16.0
33.33800,22.0
33.35000,22.0
33.36200,19.0
33.37400,22.0
33.38600,20.0
33.39800,21.0
33.41000,26.0
33.42200,23.0
33.43400,29.0
33.44600,16.0
33.45800,31.0
33.47000,23.0
33.48200,25.0
33.49400,18.0
33.50600,26.0
33.51800,21.0
33.53000,25.0
33.54200,25.0
33.55400,30.0
33.56600,20.0
33.57800,23.0
33.59000,25.0
33.60200,23.0
33.61400,21.0
33.62600,22.0
33.63800,28.0
33.65000,28.0
33.66200,21.0
33.67400,33.0
33.68600,31.0
33.69800,26.0
33.71000,17.0
33.72200,25.0
33.73400,17.0
33.74600,20.0
33.75800,23.0
33.77000,32.0
33.78200,27.0
33.79400,20.0
33.80600,23.0
33.81800,28.0
33.83000,25.0
33.84200,23.0
33.85400,29.0
33.86600,28.0
33.87800,19.0
33.89000,30.0
33.90200,18.0
33.91400,26.0
33.92600,24.0
33.93800,30.0
33.95000,28.0
33.96200,21.0
33.97400,28.0
33.98600,24.0
33.99800,33.0
34.01000,22.0
34.02200,22.0
34.03400,26.0
34.04600,26.0
34.05800,24.0
34.07000,28.0
34.08200,28.0
34.09400,28.0
34.10600,24.0
34.11800,23.0
34.13000,29.0
34.14200,27.0
34.15400,38.0
34.16600,39.0
34.17800,24.0
34.19000,23.0
34.20200,24.0
34.21400,29.0
34.22600,23.0
34.23800,40.0
34.25000,27.0
34.26200,31.0
34.27400,19.0
34.28600,44.0
34.29800,29.0
34.31000,37.0
34.32200,34.0
34.33400,37.0
34.34600,36.0
34.35800,38.0
34.37000,29.0
34.38200,40.0
34.39400,34.0
34.40600,43.0
34.41800,47.0
34.43000,39.0
34.44200,38.0
34.45400,43.0
34.46600,49.0
34.47800,52.0
34.49000,35.0
34.50200,41.0
34.51400,50.0
34.52600,50.0
34.53800,56.0
34.55000,60.0
34.56200,83.0
34.57400,56.0
34.58600,73.0
34.59800,69.0
34.61000,82.0
34.62200,90.0
34.63400,95.0
34.64600,95.0
34.65800,95.0
34.67000,111.0
34.68200,130.0
34.69400,131.0
34.70600,134.0
34.71800,151.0
34.73000,147.0
34.74200,173.0
34.75400,209.0
34.76600,212.0
34.77800,202.0
34.79000,248.0
34.80200,253.0
34.81400,277.0
34.82600,272.0
34.83800,297.0
34.85000,345.0
34.86200,316.0
34.87400,345.0
34.88600,377.0
34.89800,377.0
34.91000,396.0
34.92200,389.0
34.93400,416.0
34.94600,395.0
34.95800,433.0
34.97000,432.0
34.98200,438.0
34.99400,438.0
35.00600,440.0
35.01800,434.0
35.03000,422.0
35.04200,458.0
35.05400,410.0
35.06600,365.0
35.07800,364.0
35.09000,341.0
35.10200,372.0
35.11400,321.0
35.12600,329.0
35.13800,290.0
35.15000,287.0
35.16200,258.0
35.17400,257.0
35.18600,221.0
35.19800,226.0
35.21000,219.0
35.22200,196.0
35.23400,172.0
35.24600,192.0
35.25800,156.0
35.27000,154.0
35.28200,147.0
35.29400,130.0
35.30600,102.0
35.31800,86.0
35.33000,105.0
35.34200,80.0
35.35400,99.0
35.36600,73.0
35.37800,88.0
35.39000,85.0
35.40200,72.0
35.41400,68.0
35.42600,49.0
35.43800,69.0
35.45000,57.0
35.46200,54.0
35.47400,55.0
35.48600,56.0
35.49800,47.0
35.51000,56.0
35.52200,51.0
35.53400,39.0
35.54600,37.0
35.55800,47.0
35.57000,32.0
35.58200,41.0
35.59400,48.0
35.60600,43.0
35.61800,41.0
35.63000,34.0
35.64200,43.0
35.65400,39.0
35.66600,25.0
35.67800,35.0
35.69000,32.0
35.70200,20.0
35.71400,38.0
35.72600,29.0
35.73800,29.0
35.75000,34.0
35.76200,31.0
35.77400,30.0
35.78600,36.0
35.79800,37.0
35.81000,40.0
35.82200,25.0
35.83400,33.0
35.84600,25.0
35.85800,33.0
35.87000,36.0
35.88200,23.0
35.89400,19.0
35.90600,21.0
35.91800,29.0
35.93000,30.0
35.94200,28.0
35.95400,33.0
35.96600,26.0
35.97800,21.0
35.99000,25.0
36.00200,27.0
36.01400,26.0
36.02600,32.0
36.03800,34.0
36.05000,29.0
36.06200,45.0
36.07400,30.0
36.08600,31.0
36.09800,22.0
36.11000,26.0
36.12200,34.0
36.13400,38.0
36.14600,19.0
36.15800,26.0
36.17000,32.0
36.18200,32.0
36.19400,36.0
36.20600,27.0
36.21800,33.0
36.23000,30.0
36.24200,36.0
36.25400,27.0
36.26600,26.0
36.27800,28.0
36.29000,33.0
36.30200,34.0
36.31400,24.0
36.32600,32.0
36.33800,23.0
36.35000,37.0
36.36200,32.0
36.37400,31.0
36.38600,26.0
36.39800,33.0
36.41000,42.0
36.42200,29.0
36.43400,46.0
36.44600,40.0
36.45800,37.0
36.47000,31.0
36.48200,39.0
36.49400,44.0
36.50600,51.0
36.51800,34.0
36.53000,37.0
36.54200,38.0
36.55400,38.0
36.56600,35.0
36.57800,39.0
36.59000,56.0
36.60200,43.0
36.61400,55.0
36.62600,38.0
36.63800,45.0
36.65000,45.0
36.66200,48.0
36.67400,51.0
36.68600,51.0
36.69800,68.0
36.71000,56.0
36.72200,53.0
36.73400,44.0
36.74600,45.0
36.75800,47.0
36.77000,45.0
36.78200,62.0
36.79400,55.0
36.80600,65.0
36.81800,64.0
36.83000,52.0
36.84200,62.0
36.85400,61.0
36.86600,64.0
36.87800,52.0
36.89000,54.0
36.90200,47.0
36.91400,49.0
36.92600,59.0
36.93800,49.0
36.95000,50.0
36.96200,39.0
36.97400,52.0
36.98600,41.0
36.99800,56.0
37.01000,48.0
37.02200,52.0
37.03400,48.0
37.04600,50.0
37.05800,52.0
37.07000,57.0
37.08200,45.0
37.09400,39.0
37.10600,40.0
37.11800,50.0
37.13000,50.0
37.14200,59.0
37.15400,34.0
37.16600,49.0
37.17800,42.0
37.19000,58.0
37.20200,44.0
37.21400,50.0
37.22600,49.0
37.23800,38.0
37.25000,46.0
37.26200,45.0
37.27400,42.0
37.28600,51.0
37.29800,47.0
37.31000,38.0
37.32200,44.0
37.33400,35.0
37.34600,44.0
37.35800,52.0
37.37000,44.0
37.38200,48.0
37.39400,28.0
37.40600,52.0
37.41800,53.0
37.43000,44.0
37.44200,40.0
37.45400,46.0
37.46600,39.0
37.47800,41.0
37.49000,31.0
37.50200,50.0
37.51400,43.0
37.52600,49.0
37.53800,43.0
37.55000,39.0
37.56200,29.0
37.57400,52.0
37.58600,30.0
37.59800,30.0
37.61000,47.0
37.62200,40.0
37.63400,39.0
37.64600,49.0
37.65800,56.0
37.67000,41.0
37.68200,55.0
37.69400,52.0
37.70600,49.0
37.71800,55.0
37.73000,50.0
37.74200,70.0
37.75400,52.0
37.76600,65.0
37.77800,72.0
37.79000,63.0
37.80200,66.0
37.81400,75.0
37.82600,81.0
37.83800,61.0
37.85000,76.0
37.86200,93.0
37.87400,78.0
37.88600,98.0
37.89800,103.0
37.91000,98.0
37.92200,116.0
37.93400,109.0
37.94600,128.0
37.95800,125.0
37.97000,128.0
37.98200,151.0
37.99400,145.0
38.00600,144.0
38.01800,164.0
38.03000,164.0
38.04200,173.0
38.05400,167.0
38.06600,211.0
38.07800,236.0
38.09000,213.0
38.10200,211.0
38.11400,211.0
38.12600,233.0
38.13800,251.0
38.15000,220.0
38.16200,256.0
38.17400,272.0
38.18600,220.0
38.19800,256.0
38.21000,258.0
38.22200,245.0
38.23400,219.0
38.24600,240.0
38.25800,249.0
38.27000,245.0
38.28200,247.0
38.29400,242.0
38.30600,263.0
38.31800,234.0
38.33000,257.0
38.34200,249.0
38.35400,285.0
38.36600,260.0
38.37800,263.0
38.39000,256.0
38.40200,256.0
38.41400,289.0
38.42600,277.0
38.43800,244.0
38.45000,259.0
38.46200,269.0
38.47400,278.0
38.48600,283.0
38.49800,312.0
38.51000,294.0
38.52200,342.0
38.53400,337.0
38.54600,357.0
38.55800,354.0
38.57000,355.0
38.58200,386.0
38.59400,413.0
38.60600,403.0
38.61800,423.0
38.63000,466.0
38.64200,440.0
38.65400,391.0
38.66600,432.0
38.67800,436.0
38.69000,435.0
38.70200,439.0
38.71400,470.0
38.72600,428.0
38.73800,442.0
38.75000,470.0
38.76200,456.0
38.77400,421.0
38.78600,443.0
38.79800,426.0
38.81000,409.0
38.82200,426.0
38.83400,399.0
38.84600,404.0
38.85800,372.0
38.87000,405.0
38.88200,400.0
38.89400,344.0
38.90600,334.0
38.91800,337.0
38.93000,296.0
38.94200,268.0
38.95400,306.0
38.96600,305.0
38.97800,259.0
38.99000,272.0
39.00200,246.0
39.01400,234.0
39.02600,228.0
39.03800,197.0
39.05000,212.0
39.06200,169.0
39.07400,174.0
39.08600,185.0
39.09800,177.0
39.11000,176.0
39.12200,167.0
39.13400,147.0
39.14600,134.0
39.15800,152.0
39.17000,131.0
39.18200,142.0
39.19400,131.0
39.20600,127.0
39.21800,117.0
39.23000,123.0
39.24200,113.0
39.25400,118.0
39.26600,115.0
39.27800,111.0
39.29000,114.0
39.30200,113.0
39.31400,101.0
39.32600,91.0
39.33800,101.0
39.35000,103.0
39.36200,95.0
39.37400,101.0
39.38600,105.0
39.39800,75.0
39.41000,108.0
39.42200,101.0
39.43400,102.0
39.44600,105.0
39.45800,110.0
39.47000,93.0
39.48200,108.0
39.49400,119.0
39.50600,110.0
39.51800,108.0
39.53000,122.0
39.54200,135.0
39.55400,113.0
39.56600,134.0
39.57800,150.0
39.59000,138.0
39.60200,146.0
39.61400,148.0
39.62600,179.0
39.63800,184.0
39.65000,208.0
39.66200,182.0
39.67400,185.0
39.68600,233.0
39.69800,264.0
39.71000,251.0
39.72200,285.0
39.73400,285.0
39.74600,342.0
39.75800,419.0
39.77000,379.0
39.78200,427.0
39.79400,418.0
39.80600,527.0
39.81800,487.0
39.83000,549.0
39.84200,589.0
39.85400,633.0
39.86600,655.0
39.87800,718.0
39.89000,784.0
39.90200,781.0
39.91400,872.0
39.92600,874.0
39.93800,921.0
39.95000,962.0
39.96200,1005.0
39.97400,1052.0
39.98600,1092.0
39.99800,1068.0
40.01000,1104.0
40.02200,1134.0
40.03400,1100.0
40.04600,1095.0
40.05800,1166.0
40.07000,1114.0
40.08200,1100.0
40.09400,1051.0
40.10600,1019.0
40.11800,1072.0
40.13000,1055.0
40.14200,983.0
40.15400,911.0
40.16600,864.0
40.17800,851.0
40.19000,785.0
40.20200,760.0
40.21400,766.0
40.22600,695.0
40.23800,626.0
40.25000,630.0
40.26200,517.0
40.27400,524.0
40.28600,502.0
40.29800,437.0
40.31000,411.0
40.32200,391.0
40.33400,330.0
40.34600,353.0
40.35800,305.0
40.37000,293.0
40.38200,268.0
40.39400,245.0
40.40600,226.0
40.41800,213.0
40.43000,227.0
40.44200,209.0
40.45400,185.0
40.46600,151.0
40.47800,146.0
40.49000,154.0
40.50200,136.0
40.51400,133.0
40.52600,120.0
40.53800,116.0
40.55000,127.0
40.56200,107.0
40.57400,106.0
40.58600,106.0
40.59800,92.0
40.61000,91.0
40.62200,91.0
40.63400,73.0
40.64600,80.0
40.65800,89.0
40.67000,76.0
40.68200,68.0
40.69400,72.0
40.70600,59.0
40.71800,62.0
40.73000,64.0
40.74200,48.0
40.75400,47.0
40.76600,65.0
40.77800,59.0
40.79000,41.0
40.80200,50.0
40.81400,38.0
40.82600,62.0
40.83800,42.0
40.85000,25.0
40.86200,51.0
40.87400,53.0
40.88600,36.0
40.89800,40.0
40.91000,51.0
40.92200,41.0
40.93400,56.0
40.94600,47.0
40.95800,32.0
40.97000,52.0
40.98200,38.0
40.99400,37.0
41.00600,40.0
41.01800,31.0
41.03000,35.0
41.04200,30.0
41.05400,43.0
41.06600,35.0
41.07800,44.0
41.09000,38.0
41.10200,46.0
41.11400,38.0
41.12600,33.0
41.13800,35.0
41.15000,23.0
41.16200,32.0
41.17400,25.0
41.18600,30.0
41.19800,30.0
41.21000,28.0
41.22200,27.0
41.23400,35.0
41.24600,36.0
41.25800,33.0
41.27000,29.0
41.28200,32.0
41.29400,38.0
41.30600,27.0
41.31800,32.0
41.33000,30.0
41.34200,43.0
41.35400,27.0
41.36600,32.0
41.37800,31.0
41.39000,23.0
41.40200,27.0
41.41400,34.0
41.42600,29.0
41.43800,25.0
41.45000,29.0
41.46200,27.0
41.47400,29.0
41.48600,24.0
41.49800,25.0
41.51000,24.0
41.52200,32.0
41.53400,27.0
41.54600,27.0
41.55800,32.0
41.57000,40.0
41.58200,24.0
41.59400,21.0
41.60600,26.0
41.61800,23.0
41.63000,28.0
41.64200,23.0
41.65400,27.0
41.66600,38.0
41.67800,27.0
41.69000,29.0
41.70200,23.0
41.71400,30.0
41.72600,23.0
41.73800,29.0
41.75000,36.0
41.76200,25.0
41.77400,30.0
41.78600,21.0
41.79800,23.0
41.81000,25.0
41.82200,31.0
41.83400,29.0
41.84600,23.0
41.85800,27.0
41.87000,37.0
41.88200,32.0
41.89400,42.0
41.90600,31.0
41.91800,23.0
41.93000,39.0
41.94200,27.0
41.95400,27.0
41.96600,34.0
41.97800,22.0
41.99000,24.0
42.00200,27.0
42.01400,34.0
42.02600,32.0
42.03800,25.0
42.05000,28.0
42.06200,39.0
42.07400,25.0
42.08600,37.0
42.09800,33.0
42.11000,33.0
42.12200,38.0
42.13400,33.0
42.14600,45.0
42.15800,42.0
42.17000,49.0
42.18200,49.0
42.19400,54.0
42.20600,53.0
42.21800,38.0
42.23000,50.0
42.24200,66.0
42.25400,47.0
42.26600,54.0
42.27800,64.0
42.29000,62.0
42.30200,52.0
42.31400,59.0
42.32600,67.0
42.33800,84.0
42.35000,79.0
42.36200,79.0
42.37400,73.0
42.38600,69.0
42.39800,64.0
42.41000,88.0
42.42200,66.0
42.43400,76.0
42.44600,64.0
42.45800,80.0
42.47000,62.0
42.48200,79.0
42.49400,66.0
42.50600,56.0
42.51800,54.0
42.53000,72.0
42.54200,63.0
42.55400,60.0
42.56600,57.0
42.57800,61.0
42.59000,47.0
42.60200,67.0
42.61400,47.0
42.62600,66.0
42.63800,60.0
42.65000,74.0
42.66200,54.0
42.67400,50.0
42.68600,65.0
42.69800,57.0
42.71000,48.0
42.72200,38.0
42.73400,44.0
42.74600,40.0
42.75800,42.0
42.77000,37.0
42.78200,46.0
42.79400,61.0
42.80600,46.0
42.81800,35.0
42.83000,48.0
42.84200,38.0
42.85400,29.0
42.86600,41.0
42.87800,47.0
42.89000,27.0
42.90200,47.0
42.91400,40.0
42.92600,42.0
42.93800,32.0
42.95000,33.0
42.96200,32.0
42.97400,32.0
42.98600,33.0
42.99800,29.0
43.01000,22.0
43.02200,29.0
43.03400,31.0
43.04600,30.0
43.05800,22.0
43.07000,33.0
43.08200,24.0
43.09400,13.0
43.10600,31.0
43.11800,27.0
43.13000,15.0
43.14200,24.0
43.15400,29.0
43.16600,22.0
43.17800,24.0
43.19000,31.0
43.20200,22.0
43.21400,24.0
43.22600,28.0
43.23800,22.0
43.25000,22.0
43.26200,18.0
43.27400,18.0
43.28600,19.0
43.29800,27.0
43.31000,23.0
43.32200,21.0
43.33400,25.0
43.34600,27.0
43.35800,21.0
43.37000,24.0
43.38200,19.0
43.39400,23.0
43.40600,28.0
43.41800,20.0
43.43000,21.0
43.44200,18.0
43.45400,23.0
43.46600,23.0
43.47800,17.0
43.49000,23.0
43.50200,15.0
43.51400,26.0
43.52600,19.0
43.53800,27.0
43.55000,19.0
43.56200,25.0
43.57400,17.0
43.58600,27.0
43.59800,17.0
43.61000,16.0
43.62200,14.0
43.63400,22.0
43.64600,15.0
43.65800,21.0
43.67000,19.0
43.68200,15.0
43.69400,26.0
43.70600,23.0
43.71800,21.0
43.73000,18.0
43.74200,17.0
43.75400,21.0
43.76600,20.0
43.77800,10.0
43.79000,18.0
43.80200,15.0
43.81400,22.0
43.82600,19.0
43.83800,15.0
43.85000,18.0
43.86200,18.0
43.87400,17.0
43.88600,22.0
43.89800,13.0
43.91000,12.0
43.92200,20.0
43.93400,15.0
43.94600,12.0
43.95800,17.0
43.97000,19.0
43.98200,16.0
43.99400,27.0
44.00600,16.0
44.01800,18.0
44.03000,12.0
44.04200,24.0
44.05400,15.0
44.06600,20.0
44.07800,17.0
44.09000,16.0
44.10200,15.0
44.11400,24.0
44.12600,17.0
44.13800,13.0
44.15000,17.0
44.16200,15.0
44.17400,12.0
44.18600,15.0
44.19800,14.0
44.21000,22.0
44.22200,13.0
44.23400,23.0
44.24600,15.0
44.25800,18.0
44.27000,22.0
44.28200,19.0
44.29400,14.0
44.30600,25.0
44.31800,13.0
44.33000,19.0
44.34200,19.0
44.35400,22.0
44.36600,21.0
44.37800,21.0
44.39000,23.0
44.40200,20.0
44.41400,14.0
44.42600,21.0
44.43800,24.0
44.45000,22.0
44.46200,19.0
44.47400,20.0
44.48600,20.0
44.49800,17.0
44.51000,22.0
44.52200,18.0
44.53400,19.0
44.54600,19.0
44.55800,24.0
44.57000,16.0
44.58200,23.0
44.59400,24.0
44.60600,15.0
44.61800,13.0
44.63000,14.0
44.64200,18.0
44.65400,22.0
44.66600,15.0
44.67800,12.0
44.69000,11.0
44.70200,16.0
44.71400,16.0
44.72600,16.0
44.73800,20.0
44.75000,19.0
44.76200,19.0
44.77400,19.0
44.78600,18.0
44.79800,19.0
44.81000,12.0
44.82200,22.0
44.83400,19.0
44.84600,11.0
44.85800,14.0
44.87000,15.0
44.88200,13.0
44.89400,13.0
44.90600,14.0
44.91800,10.0
44.93000,15.0
44.94200,20.0
44.95400,10.0
44.96600,19.0
44.97800,16.0
44.99000,11.0
45.00200,11.0
45.01400,10.0
45.02600,15.0
45.03800,13.0
45.05000,15.0
45.06200,17.0
45.07400,20.0
45.08600,16.0
45.09800,24.0
45.11000,9.0
45.12200,19.0
45.13400,13.0
45.14600,15.0
45.15800,17.0
45.17000,21.0
45.18200,15.0
45.19400,17.0
45.20600,20.0
45.21800,18.0
45.23000,12.0
45.24200,18.0
45.25400,12.0
45.26600,13.0
45.27800,14.0
45.29000,20.0
45.30200,23.0
45.31400,14.0
45.32600,15.0
45.33800,14.0
45.35000,18.0
45.36200,14.0
45.37400,18.0
45.38600,12.0
45.39800,14.0
45.41000,14.0
45.42200,8.0
45.43400,17.0
45.44600,8.0
45.45800,13.0
45.47000,17.0
45.48200,11.0
45.49400,18.0
45.50600,17.0
45.51800,10.0
45.53000,21.0
45.54200,14.0
45.55400,10.0
45.56600,11.0
45.57800,15.0
45.59000,12.0
45.60200,12.0
45.61400,13.0
45.62600,24.0
45.63800,17.0
45.65000,19.0
45.66200,22.0
45.67400,11.0
45.68600,17.0
45.69800,11.0
45.71000,17.0
45.72200,12.0
45.73400,21.0
45.74600,18.0
45.75800,10.0
45.77000,11.0
45.78200,13.0
45.79400,12.0
45.80600,9.0
45.81800,14.0
45.83000,16.0
45.84200,16.0
45.85400,12.0
45.86600,7.0
45.87800,13.0
45.89000,16.0
45.90200,13.0
45.91400,20.0
45.92600,18.0
45.93800,22.0
45.95000,14.0
45.96200,22.0
45.97400,13.0
45.98600,15.0
45.99800,10.0
46.01000,9.0
46.02200,11.0
46.03400,14.0
46.04600,17.0
46.05800,10.0
46.07000,15.0
46.08200,18.0
46.09400,14.0
46.10600,15.0
46.11800,12.0
46.13000,11.0
46.14200,12.0
46.15400,15.0
46.16600,14.0
46.17800,11.0
46.19000,19.0
46.20200,12.0
46.21400,20.0
46.22600,15.0
46.23800,21.0
46.25000,11.0
46.26200,20.0
46.27400,11.0
46.28600,14.0
46.29800,19.0
46.31000,16.0
46.32200,13.0
46.33400,15.0
46.34600,14.0
46.35800,19.0
46.37000,13.0
46.38200,18.0
46.39400,21.0
46.40600,14.0
46.41800,16.0
46.43000,12.0
46.44200,18.0
46.45400,14.0
46.46600,12.0
46.47800,20.0
46.49000,10.0
46.50200,17.0
46.51400,16.0
46.52600,13.0
46.53800,17.0
46.55000,13.0
46.56200,12.0
46.57400,17.0
46.58600,9.0
46.59800,13.0
46.61000,13.0
46.62200,13.0
46.63400,15.0
46.64600,22.0
46.65800,14.0
46.67000,15.0
46.68200,16.0
46.69400,18.0
46.70600,17.0
46.71800,11.0
46.73000,17.0
46.74200,12.0
46.75400,10.0
46.76600,10.0
46.77800,19.0
46.79000,12.0
46.80200,12.0
46.81400,22.0
46.82600,10.0
46.83800,16.0
46.85000,14.0
46.86200,24.0
46.87400,21.0
46.88600,10.0
46.89800,16.0
46.91000,21.0
46.92200,20.0
46.93400,10.0
46.94600,13.0
46.95800,20.0
46.97000,14.0
46.98200,19.0
46.99400,20.0
47.00600,16.0
47.01800,14.0
47.03000,22.0
47.04200,16.0
47.05400,14.0
47.06600,15.0
47.07800,16.0
47.09000,20.0
47.10200,13.0
47.11400,15.0
47.12600,16.0
47.13800,18.0
47.15000,14.0
47.16200,16.0
47.17400,17.0
47.18600,16.0
47.19800,11.0
47.21000,10.0
47.22200,12.0
47.23400,9.0
47.24600,15.0
47.25800,11.0
47.27000,8.0
47.28200,7.0
47.29400,15.0
47.30600,17.0
47.31800,15.0
47.33000,17.0
47.34200,14.0
47.35400,9.0
47.36600,18.0
47.37800,11.0
47.39000,12.0
47.40200,13.0
47.41400,10.0
47.42600,12.0
47.43800,16.0
47.45000,14.0
47.46200,17.0
47.47400,19.0
47.48600,15.0
47.49800,11.0
47.51000,11.0
47.52200,21.0
47.53400,19.0
47.54600,13.0
47.55800,11.0
47.57000,16.0
47.58200,14.0
47.59400,21.0
47.60600,14.0
47.61800,16.0
47.63000,21.0
47.64200,12.0
47.65400,17.0
47.66600,14.0
47.67800,21.0
47.69000,9.0
47.70200,19.0
47.71400,16.0
47.72600,15.0
47.73800,16.0
47.75000,9.0
47.76200,11.0
47.77400,12.0
47.78600,11.0
47.79800,14.0
47.81000,9.0
47.82200,16.0
47.83400,18.0
47.84600,11.0
47.85800,13.0
47.87000,16.0
47.88200,13.0
47.89400,10.0
47.90600,18.0
47.91800,17.0
47.93000,18.0
47.94200,10.0
47.95400,17.0
47.96600,10.0
47.97800,9.0
47.99000,14.0
48.00200,23.0
48.01400,17.0
48.02600,14.0
48.03800,18.0
48.05000,18.0
48.06200,11.0
48.07400,11.0
48.08600,12.0
48.09800,6.0
48.11000,13.0
48.12200,16.0
48.13400,14.0
48.14600,13.0
48.15800,19.0
48.17000,15.0
48.18200,12.0
48.19400,17.0
48.20600,8.0
48.21800,6.0
48.23000,14.0
48.24200,20.0
48.25400,16.0
48.26600,9.0
48.27800,17.0
48.29000,16.0
48.30200,17.0
48.31400,11.0
48.32600,6.0
48.33800,12.0
48.35000,13.0
48.36200,15.0
48.37400,12.0
48.38600,17.0
48.39800,9.0
48.41000,15.0
48.42200,17.0
48.43400,11.0
48.44600,16.0
48.45800,7.0
48.47000,10.0
48.48200,11.0
48.49400,12.0
48.50600,12.0
48.51800,10.0
48.53000,18.0
48.54200,15.0
48.55400,6.0
48.56600,9.0
48.57800,11.0
48.59000,14.0
48.60200,10.0
48.61400,17.0
48.62600,19.0
48.63800,10.0
48.65000,22.0
48.66200,7.0
48.67400,20.0
48.68600,15.0
48.69800,9.0
48.71000,18.0
48.72200,8.0
48.73400,12.0
48.74600,14.0
48.75800,19.0
48.77000,14.0
48.78200,14.0
48.79400,13.0
48.80600,6.0
48.81800,10.0
48.83000,14.0
48.84200,15.0
48.85400,13.0
48.86600,11.0
48.87800,11.0
48.89000,9.0
48.90200,15.0
48.91400,15.0
48.92600,15.0
48.93800,12.0
48.95000,15.0
48.96200,18.0
48.97400,12.0
48.98600,14.0
48.99800,11.0
49.01000,12.0
49.02200,9.0
49.03400,8.0
49.04600,20.0
49.05800,12.0
49.07000,13.0
49.08200,10.0
49.09400,11.0
49.10600,10.0
49.11800,18.0
49.13000,11.0
49.14200,12.0
49.15400,20.0
49.16600,21.0
49.17800,15.0
49.19000,23.0
49.20200,16.0
49.21400,16.0
49.22600,10.0
49.23800,12.0
49.25000,18.0
49.26200,13.0
49.27400,27.0
49.28600,8.0
49.29800,16.0
49.31000,21.0
49.32200,15.0
49.33400,15.0
49.34600,9.0
49.35800,20.0
49.37000,14.0
49.38200,11.0
49.39400,17.0
49.40600,10.0
49.41800,10.0
49.43000,12.0
49.44200,12.0
49.45400,14.0
49.46600,18.0
49.47800,6.0
49.49000,5.0
49.50200,12.0
49.51400,13.0
49.52600,8.0
49.53800,14.0
49.55000,15.0
49.56200,11.0
49.57400,15.0
49.58600,14.0
49.59800,17.0
49.61000,4.0
49.62200,15.0
49.63400,12.0
49.64600,7.0
49.65800,12.0
49.67000,15.0
49.68200,12.0
49.69400,9.0
49.70600,17.0
49.71800,11.0
49.73000,9.0
49.74200,16.0
49.75400,13.0
49.76600,9.0
49.77800,12.0
49.79000,16.0
49.80200,12.0
49.81400,9.0
49.82600,18.0
49.83800,18.0
49.85000,11.0
49.86200,8.0
49.87400,15.0
49.88600,8.0
49.89800,17.0
49.91000,18.0
49.92200,16.0
49.93400,18.0
49.94600,12.0
49.95800,18.0
49.97000,13.0
49.98200,9.0
49.99400,11.0
50.00600,14.0
50.01800,20.0
50.03000,12.0
50.04200,20.0
50.05400,15.0
50.06600,16.0
50.07800,15.0
50.09000,13.0
50.10200,17.0
50.11400,19.0
50.12600,7.0
50.13800,14.0
50.15000,17.0
50.16200,22.0
50.17400,14.0
50.18600,16.0
50.19800,16.0
50.21000,16.0
50.22200,14.0
50.23400,10.0
50.24600,15.0
50.25800,17.0
50.27000,18.0
50.28200,12.0
50.29400,14.0
50.30600,13.0
50.31800,17.0
50.33000,21.0
50.34200,16.0
50.35400,11.0
50.36600,19.0
50.37800,14.0
50.39000,8.0
50.40200,19.0
50.41400,19.0
50.42600,17.0
50.43800,19.0
50.45000,17.0
50.46200,15.0
50.47400,16.0
50.48600,22.0
50.49800,22.0
50.51000,22.0
50.52200,15.0
50.53400,14.0
50.54600,13.0
50.55800,17.0
50.57000,15.0
50.58200,15.0
50.59400,17.0
50.60600,23.0
50.61800,10.0
50.63000,10.0
50.64200,12.0
50.65400,14.0
50.66600,25.0
50.67800,20.0
50.69000,17.0
50.70200,15.0
50.71400,27.0
50.72600,13.0
50.73800,17.0
50.75000,15.0
50.76200,14.0
50.77400,19.0
50.78600,21.0
50.79800,16.0
50.81000,17.0
50.82200,12.0
50.83400,17.0
50.84600,17.0
50.85800,20.0
50.87000,18.0
50.88200,24.0
50.89400,27.0
50.90600,15.0
50.91800,18.0
50.93000,18.0
50.94200,18.0
50.95400,15.0
50.96600,13.0
50.97800,15.0
50.99000,11.0
51.00200,13.0
51.01400,10.0
51.02600,18.0
51.03800,9.0
51.05000,19.0
51.06200,13.0
51.07400,13.0
51.08600,23.0
51.09800,17.0
51.11000,22.0
51.12200,7.0
51.13400,16.0
51.14600,8.0
51.15800,18.0
51.17000,12.0
51.18200,21.0
51.19400,17.0
51.20600,20.0
51.21800,26.0
51.23000,9.0
51.24200,23.0
51.25400,14.0
51.26600,23.0
51.27800,20.0
51.29000,11.0
51.30200,10.0
51.31400,14.0
51.32600,12.0
51.33800,20.0
51.35000,12.0
51.36200,14.0
51.37400,18.0
51.38600,18.0
51.39800,14.0
51.41000,14.0
51.42200,18.0
51.43400,16.0
51.44600,16.0
51.45800,13.0
51.47000,15.0
51.48200,17.0
51.49400,15.0
51.50600,17.0
51.51800,18.0
51.53000,15.0
51.54200,16.0
51.55400,21.0
51.56600,18.0
51.57800,16.0
51.59000,11.0
51.60200,7.0
51.61400,11.0
51.62600,17.0
51.63800,19.0
51.65000,15.0
51.66200,15.0
51.67400,12.0
51.68600,11.0
51.69800,22.0
51.71000,13.0
51.72200,18.0
51.73400,13.0
51.74600,23.0
51.75800,14.0
51.77000,14.0
51.78200,11.0
51.79400,17.0
51.80600,14.0
51.81800,23.0
51.83000,14.0
51.84200,16.0
51.85400,19.0
51.86600,17.0
51.87800,7.0
51.89000,22.0
51.90200,13.0
51.91400,12.0
51.92600,15.0
51.93800,14.0
51.95000,18.0
51.96200,19.0
51.97400,10.0
51.98600,17.0
51.99800,12.0
52.01000,22.0
52.02200,23.0
52.03400,13.0
52.04600,19.0
52.05800,18.0
52.07000,24.0
52.08200,9.0
52.09400,20.0
52.10600,18.0
52.11800,16.0
52.13000,16.0
52.14200,18.0
52.15400,17.0
52.16600,16.0
52.17800,22.0
52.19000,16.0
52.20200,20.0
52.21400,18.0
52.22600,16.0
52.23800,17.0
52.25000,24.0
52.26200,22.0
52.27400,20.0
52.28600,27.0
52.29800,27.0
52.31000,31.0
52.32200,19.0
52.33400,22.0
52.34600,15.0
52.35800,26.0
52.37000,18.0
52.38200,38.0
52.39400,27.0
52.40600,31.0
52.41800,33.0
52.43000,50.0
52.44200,43.0
52.45400,33.0
52.46600,41.0
52.47800,49.0
52.49000,36.0
52.50200,48.0
52.51400,58.0
52.52600,59.0
52.53800,81.0
52.55000,70.0
52.56200,83.0
52.57400,77.0
52.58600,91.0
52.59800,94.0
52.61000,89.0
52.62200,120.0
52.63400,105.0
52.64600,93.0
52.65800,102.0
52.67000,116.0
52.68200,126.0
52.69400,129.0
52.70600,172.0
52.71800,156.0
52.73000,146.0
52.74200,154.0
52.75400,165.0
52.76600,164.0
52.77800,185.0
52.79000,157.0
52.80200,177.0
52.81400,194.0
52.82600,184.0
52.83800,181.0
52.85000,171.0
52.86200,193.0
52.87400,180.0
52.88600,175.0
52.89800,156.0
52.91000,189.0
52.92200,159.0
52.93400,137.0
52.94600,166.0
52.95800,152.0
52.97000,153.0
52.98200,116.0
52.99400,109.0
53.00600,145.0
53.01800,128.0
53.03000,124.0
53.04200,96.0
53.05400,101.0
53.06600,102.0
53.07800,84.0
53.09000,97.0
53.10200,83.0
53.11400,87.0
53.12600,89.0
53.13800,67.0
53.15000,75.0
53.16200,76.0
53.17400,73.0
53.18600,50.0
53.19800,70.0
53.21000,44.0
53.22200,48.0
53.23400,59.0
53.24600,55.0
53.25800,55.0
53.27000,49.0
53.28200,42.0
53.29400,36.0
53.30600,35.0
53.31800,22.0
53.33000,27.0
53.34200,32.0
53.35400,25.0
53.36600,39.0
53.37800,33.0
53.39000,35.0
53.40200,30.0
53.41400,32.0
53.42600,23.0
53.43800,33.0
53.45000,29.0
53.46200,34.0
53.47400,29.0
53.48600,17.0
53.49800,33.0
53.51000,18.0
53.52200,29.0
53.53400,24.0
53.54600,22.0
53.55800,27.0
53.57000,21.0
53.58200,15.0
53.59400,28.0
53.60600,19.0
53.61800,26.0
53.63000,19.0
53.64200,21.0
53.65400,20.0
53.66600,17.0
53.67800,23.0
53.69000,20.0
53.70200,26.0
53.71400,19.0
53.72600,18.0
53.73800,12.0
53.75000,18.0
53.76200,18.0
53.77400,21.0
53.78600,25.0
53.79800,16.0
53.81000,22.0
53.82200,14.0
53.83400,17.0
53.84600,16.0
53.85800,19.0
53.87000,24.0
53.88200,16.0
53.89400,23.0
53.90600,20.0
53.91800,18.0
53.93000,17.0
53.94200,14.0
53.95400,18.0
53.96600,11.0
53.97800,15.0
53.99000,12.0
54.00200,21.0
54.01400,9.0
54.02600,16.0
54.03800,28.0
54.05000,14.0
54.06200,16.0
54.07400,13.0
54.08600,19.0
54.09800,16.0
54.11000,19.0
54.12200,18.0
54.13400,21.0
54.14600,14.0
54.15800,24.0
54.17000,11.0
54.18200,25.0
54.19400,18.0
54.20600,26.0
54.21800,16.0
54.23000,28.0
54.24200,16.0
54.25400,20.0
54.26600,20.0
54.27800,16.0
54.29000,24.0
54.30200,20.0
54.31400,21.0
54.32600,14.0
54.33800,8.0
54.35000,16.0
54.36200,17.0
54.37400,16.0
54.38600,28.0
54.39800,21.0
54.41000,17.0
54.42200,22.0
54.43400,16.0
54.44600,22.0
54.45800,26.0
54.47000,24.0
54.48200,24.0
54.49400,19.0
54.50600,27.0
54.51800,16.0
54.53000,23.0
54.54200,25.0
54.55400,26.0
54.56600,21.0
54.57800,23.0
54.59000,26.0
54.60200,30.0
54.61400,23.0
54.62600,19.0
54.63800,31.0
54.65000,21.0
54.66200,31.0
54.67400,14.0
54.68600,27.0
54.69800,25.0
54.71000,26.0
54.72200,24.0
54.73400,24.0
54.74600,31.0
54.75800,23.0
54.77000,21.0
54.78200,14.0
54.79400,18.0
54.80600,20.0
54.81800,19.0
54.83000,23.0
54.84200,25.0
54.85400,28.0
54.86600,17.0
54.87800,24.0
54.89000,19.0
54.90200,24.0
54.91400,17.0
54.92600,12.0
54.93800,24.0
54.95000,36.0
54.96200,19.0
54.97400,32.0
54.98600,26.0
54.99800,32.0
55.01000,24.0
55.02200,27.0
55.03400,29.0
55.04600,20.0
55.05800,34.0
55.07000,29.0
55.08200,26.0
55.09400,23.0
55.10600,33.0
55.11800,32.0
55.13000,22.0
55.14200,26.0
55.15400,18.0
55.16600,28.0
55.17800,31.0
55.19000,22.0
55.20200,32.0
55.21400,30.0
55.22600,26.0
55.23800,23.0
55.25000,35.0
55.26200,43.0
55.27400,41.0
55.28600,30.0
55.29800,23.0
55.31000,35.0
55.32200,36.0
55.33400,31.0
55.34600,41.0
55.35800,42.0
55.37000,34.0
55.38200,38.0
55.39400,43.0
55.40600,31.0
55.41800,32.0
55.43000,40.0
55.44200,44.0
55.45400,56.0
55.46600,37.0
55.47800,47.0
55.49000,31.0
55.50200,33.0
55.51400,47.0
55.52600,55.0
55.53800,53.0
55.55000,54.0
55.56200,46.0
55.57400,61.0
55.58600,42.0
55.59800,55.0
55.61000,58.0
55.62200,44.0
55.63400,52.0
55.64600,56.0
55.65800,59.0
55.67000,66.0
55.68200,69.0
55.69400,54.0
55.70600,64.0
55.71800,62.0
55.73000,65.0
55.74200,52.0
55.75400,59.0
55.76600,54.0
55.77800,71.0
55.79000,86.0
55.80200,81.0
55.81400,74.0
55.82600,86.0
55.83800,82.0
55.85000,83.0
55.86200,95.0
55.87400,72.0
55.88600,97.0
55.89800,80.0
55.91000,98.0
55.92200,89.0
55.93400,78.0
55.94600,94.0
55.95800,104.0
55.97000,90.0
55.98200,94.0
55.99400,112.0
56.00600,96.0
56.01800,90.0
56.03000,101.0
56.04200,96.0
56.05400,100.0
56.06600,89.0
56.07800,108.0
56.09000,101.0
56.10200,85.0
56.11400,89.0
56.12600,95.0
56.13800,87.0
56.15000,92.0
56.16200,103.0
56.17400,70.0
56.18600,76.0
56.19800,76.0
56.21000,84.0
56.22200,85.0
56.23400,80.0
56.24600,72.0
56.25800,79.0
56.27000,69.0
56.28200,75.0
56.29400,62.0
56.30600,79.0
56.31800,55.0
56.33000,65.0
56.34200,56.0
56.35400,64.0
56.36600,58.0
56.37800,59.0
56.39000,49.0
56.40200,50.0
56.41400,57.0
56.42600,55.0
56.43800,42.0
56.45000,44.0
56.46200,51.0
56.47400,40.0
56.48600,54.0
56.49800,34.0
56.51000,32.0
56.52200,42.0
56.53400,33.0
56.54600,35.0
56.55800,27.0
56.57000,36.0
56.58200,43.0
56.59400,31.0
56.60600,29.0
56.61800,33.0
56.63000,31.0
56.64200,36.0
56.65400,44.0
56.66600,26.0
56.67800,22.0
56.69000,27.0
56.70200,34.0
56.71400,30.0
56.72600,26.0
56.73800,27.0
56.75000,28.0
56.76200,24.0
56.77400,26.0
56.78600,26.0
56.79800,29.0
56.81000,23.0
56.82200,21.0
56.83400,14.0
56.84600,16.0
56.85800,24.0
56.87000,30.0
56.88200,13.0
56.89400,24.0
56.90600,21.0
56.91800,18.0
56.93000,19.0
56.94200,23.0
56.95400,24.0
56.96600,20.0
56.97800,19.0
56.99000,17.0
57.00200,28.0
57.01400,12.0
57.02600,20.0
57.03800,17.0
57.05000,24.0
57.06200,17.0
57.07400,18.0
57.08600,15.0
57.09800,15.0
57.11000,20.0
57.12200,14.0
57.13400,21.0
57.14600,15.0
57.15800,22.0
57.17000,11.0
57.18200,14.0
57.19400,16.0
57.20600,16.0
57.21800,14.0
57.23000,26.0
57.24200,16.0
57.25400,17.0
57.26600,13.0
57.27800,13.0
57.29000,15.0
57.30200,7.0
57.31400,18.0
57.32600,20.0
57.33800,22.0
57.35000,10.0
57.36200,19.0
57.37400,19.0
57.38600,19.0
57.39800,11.0
57.41000,13.0
57.42200,14.0
57.43400,13.0
57.44600,8.0
57.45800,23.0
57.47000,16.0
57.48200,19.0
57.49400,13.0
57.50600,17.0
57.51800,14.0
57.53000,16.0
57.54200,22.0
57.55400,17.0
57.56600,13.0
57.57800,12.0
57.59000,15.0
57.60200,14.0
57.61400,21.0
57.62600,18.0
57.63800,7.0
57.65000,8.0
57.66200,17.0
57.67400,9.0
57.68600,20.0
57.69800,19.0
57.71000,12.0
57.72200,14.0
57.73400,13.0
57.74600,26.0
57.75800,15.0
57.77000,14.0
57.78200,19.0
57.79400,16.0
57.80600,12.0
57.81800,20.0
57.83000,10.0
57.84200,18.0
57.85400,16.0
57.86600,19.0
57.87800,8.0
57.89000,16.0
57.90200,15.0
57.91400,12.0
57.92600,13.0
57.93800,11.0
57.95000,14.0
57.96200,16.0
57.97400,11.0
57.98600,14.0
57.99800,16.0
58.01000,14.0
58.02200,16.0
58.03400,11.0
58.04600,15.0
58.05800,10.0
58.07000,15.0
58.08200,9.0
58.09400,12.0
58.10600,12.0
58.11800,12.0
58.13000,11.0
58.14200,17.0
58.15400,5.0
58.16600,17.0
58.17800,11.0
58.19000,15.0
58.20200,12.0
58.21400,17.0
58.22600,13.0
58.23800,11.0
58.25000,15.0
58.26200,15.0
58.27400,17.0
58.28600,10.0
58.29800,10.0
58.31000,12.0
58.32200,15.0
58.33400,16.0
58.34600,16.0
58.35800,13.0
58.37000,20.0
58.38200,12.0
58.39400,12.0
58.40600,17.0
58.41800,12.0
58.43000,15.0
58.44200,14.0
58.45400,8.0
58.46600,12.0
58.47800,18.0
58.49000,9.0
58.50200,14.0
58.51400,15.0
58.52600,18.0
58.53800,15.0
58.55000,16.0
58.56200,12.0
58.57400,11.0
58.58600,11.0
58.59800,12.0
58.61000,10.0
58.62200,12.0
58.63400,15.0
58.64600,15.0
58.65800,23.0
58.67000,9.0
58.68200,13.0
58.69400,9.0
58.70600,12.0
58.71800,10.0
58.73000,16.0
58.74200,13.0
58.75400,7.0
58.76600,14.0
58.77800,14.0
58.79000,17.0
58.80200,14.0
58.81400,9.0
58.82600,10.0
58.83800,16.0
58.85000,13.0
58.86200,12.0
58.87400,13.0
58.88600,14.0
58.89800,14.0
58.91000,11.0
58.92200,14.0
58.93400,9.0
58.94600,12.0
58.95800,7.0
58.97000,17.0
58.98200,16.0
58.99400,9.0
59.00600,14.0
59.01800,12.0
59.03000,10.0
59.04200,11.0
59.05400,9.0
59.06600,15.0
59.07800,15.0
59.09000,13.0
59.10200,12.0
59.11400,16.0
59.12600,10.0
59.13800,17.0
59.15000,7.0
59.16200,11.0
59.17400,7.0
59.18600,10.0
59.19800,18.0
59.21000,14.0
59.22200,17.0
59.23400,17.0
59.24600,16.0
59.25800,17.0
59.27000,13.0
59.28200,14.0
59.29400,10.0
59.30600,7.0
59.31800,18.0
59.33000,17.0
59.34200,19.0
59.35400,14.0
59.36600,9.0
59.37800,7.0
59.39000,12.0
59.40200,16.0
59.41400,14.0
59.42600,13.0
59.43800,18.0
59.45000,13.0
59.46200,16.0
59.47400,17.0
59.48600,7.0
59.49800,16.0
59.51000,15.0
59.52200,21.0
59.53400,12.0
59.54600,8.0
59.55800,11.0
59.57000,7.0
59.58200,11.0
59.59400,15.0
59.60600,8.0
59.61800,8.0
59.63000,14.0
59.64200,8.0
59.65400,14.0
59.66600,14.0
59.67800,11.0
59.69000,14.0
59.70200,6.0
59.71400,11.0
59.72600,10.0
59.73800,12.0
59.75000,11.0
59.76200,9.0
59.77400,12.0
59.78600,10.0
59.79800,11.0
59.81000,12.0
59.82200,15.0
59.83400,14.0
59.84600,10.0
59.85800,11.0
59.87000,10.0
59.88200,13.0
59.89400,11.0
59.90600,12.0
59.91800,19.0
59.93000,12.0
59.94200,11.0
59.95400,9.0
59.96600,7.0
59.97800,10.0
59.99000,17.0
60.00200,6.0
60.01400,11.0
60.02600,10.0
60.03800,13.0
60.05000,14.0
60.06200,15.0
60.07400,9.0
60.08600,13.0
60.09800,10.0
60.11000,13.0
60.12200,10.0
60.13400,16.0
60.14600,14.0
60.15800,7.0
60.17000,11.0
60.18200,11.0
60.19400,13.0
60.20600,16.0
60.21800,13.0
60.23000,17.0
60.24200,16.0
60.25400,17.0
60.26600,15.0
60.27800,17.0
60.29000,12.0
60.30200,22.0
60.31400,15.0
60.32600,23.0
60.33800,10.0
60.35000,20.0
60.36200,14.0
60.37400,15.0
60.38600,14.0
60.39800,24.0
60.41000,20.0
60.42200,15.0
60.43400,19.0
60.44600,17.0
60.45800,14.0
60.47000,11.0
60.48200,16.0
60.49400,5.0
60.50600,9.0
60.51800,15.0
60.53000,12.0
60.54200,11.0
60.55400,13.0
60.56600,14.0
60.57800,7.0
60.59000,19.0
60.60200,18.0
60.61400,16.0
60.62600,9.0
60.63800,13.0
60.65000,13.0
60.66200,13.0
60.67400,18.0
60.68600,22.0
60.69800,12.0
60.71000,10.0
60.72200,13.0
60.73400,16.0
60.74600,10.0
60.75800,16.0
60.77000,15.0
60.78200,13.0
60.79400,15.0
60.80600,17.0
60.81800,15.0
60.83000,17.0
60.84200,10.0
60.85400,10.0
60.86600,12.0
60.87800,10.0
60.89000,18.0
60.90200,14.0
60.91400,10.0
60.92600,12.0
60.93800,10.0
60.95000,16.0
60.96200,16.0
60.97400,8.0
60.98600,14.0
60.99800,14.0
61.01000,19.0
61.02200,14.0
61.03400,13.0
61.04600,12.0
61.05800,14.0
61.07000,14.0
61.08200,17.0
61.09400,18.0
61.10600,8.0
61.11800,17.0
61.13000,15.0
61.14200,13.0
61.15400,11.0
61.16600,13.0
61.17800,16.0
61.19000,19.0
61.20200,11.0
61.21400,10.0
61.22600,14.0
61.23800,13.0
61.25000,15.0
61.26200,11.0
61.27400,13.0
61.28600,8.0
61.29800,16.0
61.31000,11.0
61.32200,19.0
61.33400,21.0
61.34600,14.0
61.35800,17.0
61.37000,15.0
61.38200,9.0
61.39400,13.0
61.40600,16.0
61.41800,13.0
61.43000,12.0
61.44200,15.0
61.45400,23.0
61.46600,18.0
61.47800,24.0
61.49000,15.0
61.50200,22.0
61.51400,17.0
61.52600,16.0
61.53800,11.0
61.55000,15.0
61.56200,25.0
61.57400,19.0
61.58600,22.0
61.59800,19.0
61.61000,11.0
61.62200,22.0
61.63400,18.0
61.64600,23.0
61.65800,18.0
61.67000,17.0
61.68200,15.0
61.69400,18.0
61.70600,20.0
61.71800,25.0
61.73000,16.0
61.74200,25.0
61.75400,13.0
61.76600,19.0
61.77800,35.0
61.79000,26.0
61.80200,31.0
61.81400,22.0
61.82600,23.0
61.83800,19.0
61.85000,29.0
61.86200,23.0
61.87400,26.0
61.88600,32.0
61.89800,23.0
61.91000,19.0
61.92200,21.0
61.93400,32.0
61.94600,28.0
61.95800,25.0
61.97000,30.0
61.98200,38.0
61.99400,27.0
62.00600,32.0
62.01800,30.0
62.03000,35.0
62.04200,25.0
62.05400,35.0
62.06600,29.0
62.07800,35.0
62.09000,41.0
62.10200,42.0
62.11400,32.0
62.12600,30.0
62.13800,28.0
62.15000,28.0
62.16200,32.0
62.17400,47.0
62.18600,39.0
62.19800,43.0
62.21000,53.0
62.22200,42.0
62.23400,40.0
62.24600,39.0
62.25800,54.0
62.27000,54.0
62.28200,44.0
62.29400,55.0
62.30600,52.0
62.31800,53.0
62.33000,54.0
62.34200,56.0
62.35400,47.0
62.36600,64.0
62.37800,65.0
62.39000,61.0
62.40200,56.0
62.41400,79.0
62.42600,71.0
62.43800,70.0
62.45000,75.0
62.46200,78.0
62.47400,83.0
62.48600,107.0
62.49800,99.0
62.51000,96.0
62.52200,97.0
62.53400,117.0
62.54600,109.0
62.55800,102.0
62.57000,121.0
62.58200,134.0
62.59400,120.0
62.60600,155.0
62.61800,134.0
62.63000,160.0
62.64200,162.0
62.65400,142.0
62.66600,145.0
62.67800,171.0
62.69000,148.0
62.70200,157.0
62.71400,152.0
62.72600,186.0
62.73800,155.0
62.75000,170.0
62.76200,208.0
62.77400,181.0
62.78600,203.0
62.79800,206.0
62.81000,174.0
62.82200,186.0
62.83400,206.0
62.84600,197.0
62.85800,212.0
62.87000,212.0
62.88200,196.0
62.89400,205.0
62.90600,209.0
62.91800,213.0
62.93000,208.0
62.94200,164.0
62.95400,163.0
62.96600,204.0
62.97800,197.0
62.99000,163.0
63.00200,181.0
63.01400,160.0
63.02600,154.0
63.03800,152.0
63.05000,139.0
63.06200,151.0
63.07400,142.0
63.08600,143.0
63.09800,162.0
63.11000,153.0
63.12200,120.0
63.13400,108.0
63.14600,145.0
63.15800,114.0
63.17000,109.0
63.18200,109.0
63.19400,102.0
63.20600,99.0
63.21800,94.0
63.23000,79.0
63.24200,99.0
63.25400,70.0
63.26600,74.0
63.27800,93.0
63.29000,68.0
63.30200,66.0
63.31400,46.0
63.32600,67.0
63.33800,54.0
63.35000,78.0
63.36200,59.0
63.37400,45.0
63.38600,49.0
63.39800,61.0
63.41000,51.0
63.42200,52.0
63.43400,50.0
63.44600,42.0
63.45800,38.0
63.47000,41.0
63.48200,38.0
63.49400,31.0
63.50600,36.0
63.51800,33.0
63.53000,31.0
63.54200,31.0
63.55400,41.0
63.56600,29.0
63.57800,40.0
63.59000,27.0
63.60200,26.0
63.61400,43.0
63.62600,28.0
63.63800,25.0
63.65000,32.0
63.66200,23.0
63.67400,23.0
63.68600,27.0
63.69800,23.0
63.71000,19.0
63.72200,32.0
63.73400,25.0
63.74600,25.0
63.75800,16.0
63.77000,23.0
63.78200,13.0
63.79400,26.0
63.80600,28.0
63.81800,23.0
63.83000,20.0
63.84200,18.0
63.85400,15.0
63.86600,14.0
63.87800,22.0
63.89000,23.0
63.90200,21.0
63.91400,25.0
63.92600,20.0
63.93800,15.0
63.95000,23.0
63.96200,24.0
63.97400,19.0
63.98600,18.0
63.99800,22.0
64.01000,16.0
64.02200,18.0
64.03400,13.0
64.04600,14.0
64.05800,20.0
64.07000,20.0
64.08200,30.0
64.09400,14.0
64.10600,18.0
64.11800,20.0
64.13000,15.0
64.14200,21.0
64.15400,20.0
64.16600,16.0
64.17800,12.0
64.19000,9.0
64.20200,12.0
64.21400,8.0
64.22600,16.0
64.23800,15.0
64.25000,17.0
64.26200,22.0
64.27400,13.0
64.28600,16.0
64.29800,21.0
64.31000,21.0
64.32200,25.0
64.33400,14.0
64.34600,12.0
64.35800,24.0
64.37000,25.0
64.38200,11.0
64.39400,11.0
64.40600,18.0
64.41800,13.0
64.43000,16.0
64.44200,7.0
64.45400,21.0
64.46600,13.0
64.47800,10.0
64.49000,7.0
64.50200,12.0
64.51400,16.0
64.52600,17.0
64.53800,11.0
64.55000,13.0
64.56200,9.0
64.57400,24.0
64.58600,14.0
64.59800,10.0
64.61000,13.0
64.62200,23.0
64.63400,16.0
64.64600,12.0
64.65800,15.0
64.67000,17.0
64.68200,17.0
64.69400,19.0
64.70600,13.0
64.71800,11.0
64.73000,11.0
64.74200,15.0
64.75400,8.0
64.76600,12.0
64.77800,21.0
64.79000,13.0
64.80200,8.0
64.81400,12.0
64.82600,6.0
64.83800,18.0
64.85000,15.0
64.86200,11.0
64.87400,16.0
64.88600,13.0
64.89800,15.0
64.91000,12.0
64.92200,12.0
64.93400,19.0
64.94600,17.0
64.95800,9.0
64.97000,14.0
64.98200,13.0
64.99400,18.0
65.00600,25.0
65.01800,8.0
65.03000,14.0
65.04200,10.0
65.05400,12.0
65.06600,17.0
65.07800,10.0
65.09000,16.0
65.10200,16.0
65.11400,9.0
65.12600,4.0
65.13800,7.0
65.15000,16.0
65.16200,13.0
65.17400,16.0
65.18600,15.0
65.19800,16.0
65.21000,13.0
65.22200,14.0
65.23400,8.0
65.24600,13.0
65.25800,15.0
65.27000,25.0
65.28200,15.0
65.29400,23.0
65.30600,15.0
65.31800,15.0
65.33000,12.0
65.34200,21.0
65.35400,11.0
65.36600,15.0
65.37800,14.0
65.39000,19.0
65.40200,14.0
65.41400,10.0
65.42600,17.0
65.43800,15.0
65.45000,19.0
65.46200,22.0
65.47400,15.0
65.48600,17.0
65.49800,18.0
65.51000,21.0
65.52200,17.0
65.53400,20.0
65.54600,20.0
65.55800,16.0
65.57000,16.0
65.58200,17.0
65.59400,21.0
65.60600,12.0
65.61800,23.0
65.63000,21.0
65.64200,10.0
65.65400,24.0
65.66600,14.0
65.67800,20.0
65.69000,13.0
65.70200,10.0
65.71400,19.0
65.72600,18.0
65.73800,19.0
65.75000,22.0
65.76200,21.0
65.77400,19.0
65.78600,22.0
65.79800,13.0
65.81000,23.0
65.82200,10.0
65.83400,15.0
65.84600,18.0
65.85800,17.0
65.87000,19.0
65.88200,11.0
65.89400,17.0
65.90600,19.0
65.91800,15.0
65.93000,15.0
65.94200,18.0
65.95400,14.0
65.96600,20.0
65.97800,18.0
65.99000,11.0
66.00200,17.0
66.01400,17.0
66.02600,25.0
66.03800,16.0
66.05000,21.0
66.06200,17.0
66.07400,18.0
66.08600,20.0
66.09800,16.0
66.11000,10.0
66.12200,12.0
66.13400,18.0
66.14600,10.0
66.15800,18.0
66.17000,16.0
66.18200,13.0
66.19400,16.0
66.20600,8.0
66.21800,17.0
66.23000,12.0
66.24200,19.0
66.25400,11.0
66.26600,17.0
66.27800,16.0
66.29000,15.0
66.30200,19.0
66.31400,16.0
66.32600,19.0
66.33800,15.0
66.35000,13.0
66.36200,15.0
66.37400,18.0
66.38600,16.0
66.39800,9.0
66.41000,15.0
66.42200,10.0
66.43400,17.0
66.44600,11.0
66.45800,23.0
66.47000,12.0
66.48200,14.0
66.49400,19.0
66.50600,15.0
66.51800,16.0
66.53000,13.0
66.54200,11.0
66.55400,12.0
66.56600,11.0
66.57800,17.0
66.59000,22.0
66.60200,15.0
66.61400,18.0
66.62600,15.0
66.63800,14.0
66.65000,7.0
66.66200,18.0
66.67400,13.0
66.68600,12.0
66.69800,14.0
66.71000,11.0
66.72200,12.0
66.73400,17.0
66.74600,20.0
66.75800,10.0
66.77000,10.0
66.78200,12.0
66.79400,20.0
66.80600,7.0
66.81800,17.0
66.83000,17.0
66.84200,13.0
66.85400,23.0
66.86600,13.0
66.87800,17.0
66.89000,9.0
66.90200,12.0
66.91400,12.0
66.92600,18.0
66.93800,13.0
66.95000,14.0
66.96200,12.0
66.97400,18.0
66.98600,15.0
66.99800,15.0
67.01000,15.0
67.02200,17.0
67.03400,14.0
67.04600,13.0
67.05800,13.0
67.07000,21.0
67.08200,13.0
67.09400,15.0
67.10600,10.0
67.11800,18.0
67.13000,11.0
67.14200,12.0
67.15400,10.0
67.16600,12.0
67.17800,16.0
67.19000,18.0
67.20200,13.0
67.21400,15.0
67.22600,19.0
67.23800,12.0
67.25000,14.0
67.26200,14.0
67.27400,16.0
67.28600,10.0
67.29800,20.0
67.31000,17.0
67.32200,6.0
67.33400,17.0
67.34600,10.0
67.35800,16.0
67.37000,11.0
67.38200,11.0
67.39400,10.0
67.40600,13.0
67.41800,18.0
67.43000,15.0
67.44200,13.0
67.45400,13.0
67.46600,14.0
67.47800,22.0
67.49000,16.0
67.50200,8.0
67.51400,13.0
67.52600,18.0
67.53800,16.0
67.55000,15.0
67.56200,31.0
67.57400,10.0
67.58600,7.0
67.59800,11.0
67.61000,12.0
67.62200,12.0
67.63400,18.0
67.64600,11.0
67.65800,17.0
67.67000,20.0
67.68200,20.0
67.69400,15.0
67.70600,19.0
67.71800,15.0
67.73000,14.0
67.74200,10.0
67.75400,17.0
67.76600,12.0
67.77800,21.0
67.79000,12.0
67.80200,24.0
67.81400,17.0
67.82600,9.0
67.83800,11.0
67.85000,14.0
67.86200,18.0
67.87400,15.0
67.88600,15.0
67.89800,21.0
67.91000,17.0
67.92200,15.0
67.93400,17.0
67.94600,15.0
67.95800,18.0
67.97000,14.0
67.98200,19.0
67.99400,14.0
68.00600,20.0
68.01800,26.0
68.03000,17.0
68.04200,12.0
68.05400,18.0
68.06600,11.0
68.07800,13.0
68.09000,21.0
68.10200,21.0
68.11400,23.0
68.12600,25.0
68.13800,14.0
68.15000,13.0
68.16200,9.0
68.17400,29.0
68.18600,18.0
68.19800,16.0
68.21000,15.0
68.22200,15.0
68.23400,16.0
68.24600,15.0
68.25800,16.0
68.27000,15.0
68.28200,22.0
68.29400,23.0
68.30600,26.0
68.31800,19.0
68.33000,15.0
68.34200,18.0
68.35400,18.0
68.36600,24.0
68.37800,19.0
68.39000,14.0
68.40200,16.0
68.41400,18.0
68.42600,13.0
68.43800,23.0
68.45000,18.0
68.46200,15.0
68.47400,16.0
68.48600,17.0
68.49800,20.0
68.51000,16.0
68.52200,23.0
68.53400,20.0
68.54600,20.0
68.55800,19.0
68.57000,13.0
68.58200,21.0
68.59400,21.0
68.60600,24.0
68.61800,30.0
68.63000,18.0
68.64200,22.0
68.65400,28.0
68.66600,29.0
68.67800,17.0
68.69000,19.0
68.70200,24.0
68.71400,19.0
68.72600,19.0
68.73800,18.0
68.75000,12.0
68.76200,26.0
68.77400,20.0
68.78600,18.0
68.79800,23.0
68.81000,25.0
68.82200,23.0
68.83400,25.0
68.84600,26.0
68.85800,22.0
68.87000,27.0
68.88200,20.0
68.89400,27.0
68.90600,26.0
68.91800,24.0
68.93000,25.0
68.94200,18.0
68.95400,29.0
68.96600,23.0
68.97800,25.0
68.99000,25.0
69.00200,29.0
69.01400,30.0
69.02600,26.0
69.03800,29.0
69.05000,29.0
69.06200,36.0
69.07400,18.0
69.08600,30.0
69.09800,25.0
69.11000,32.0
69.12200,19.0
69.13400,27.0
69.14600,31.0
69.15800,32.0
69.17000,30.0
69.18200,30.0
69.19400,19.0
69.20600,25.0
69.21800,28.0
69.23000,32.0
69.24200,36.0
69.25400,31.0
69.26600,38.0
69.27800,33.0
69.29000,33.0
69.30200,36.0
69.31400,40.0
69.32600,34.0
69.33800,33.0
69.35000,29.0
69.36200,34.0
69.37400,37.0
69.38600,45.0
69.39800,45.0
69.41000,43.0
69.42200,51.0
69.43400,37.0
69.44600,48.0
69.45800,47.0
69.47000,36.0
69.48200,34.0
69.49400,37.0
69.50600,51.0
69.51800,50.0
69.53000,50.0
69.54200,47.0
69.55400,49.0
69.56600,49.0
69.57800,55.0
69.59000,56.0
69.60200,45.0
69.61400,58.0
69.62600,69.0
69.63800,65.0
69.65000,60.0
69.66200,61.0
69.67400,54.0
69.68600,56.0
69.69800,68.0
69.71000,71.0
69.72200,69.0
69.73400,74.0
69.74600,85.0
69.75800,84.0
69.77000,73.0
69.78200,90.0
69.79400,97.0
69.80600,80.0
69.81800,91.0
69.83000,90.0
69.84200,100.0
69.85400,86.0
69.86600,98.0
69.87800,105.0
69.89000,104.0
69.90200,117.0
69.91400,112.0
69.92600,117.0
69.93800,116.0
69.95000,135.0
69.96200,130.0
69.97400,122.0
69.98600,148.0
69.99800,132.0
70.01000,151.0
70.02200,148.0
70.03400,161.0
70.04600,175.0
70.05800,175.0
70.07000,183.0
70.08200,190.0
70.09400,186.0
70.10600,207.0
70.11800,187.0
70.13000,197.0
70.14200,247.0
70.15400,238.0
70.16600,231.0
70.17800,225.0
70.19000,235.0
70.20200,248.0
70.21400,242.0
70.22600,258.0
70.23800,273.0
70.25000,274.0
70.26200,315.0
70.27400,286.0
70.28600,280.0
70.29800,280.0
70.31000,249.0
70.32200,267.0
70.33400,289.0
70.34600,251.0
70.35800,281.0
70.37000,286.0
70.38200,266.0
70.39400,279.0
70.40600,271.0
70.41800,293.0
70.43000,283.0
70.44200,286.0
70.45400,299.0
70.46600,291.0
70.47800,278.0
70.49000,267.0
70.50200,242.0
70.51400,281.0
70.52600,253.0
70.53800,217.0
70.55000,229.0
70.56200,227.0
70.57400,226.0
70.58600,198.0
70.59800,232.0
70.61000,205.0
70.62200,187.0
70.63400,199.0
70.64600,186.0
70.65800,184.0
70.67000,189.0
70.68200,164.0
70.69400,158.0
70.70600,135.0
70.71800,160.0
70.73000,147.0
70.74200,151.0
70.75400,142.0
70.76600,120.0
70.77800,118.0
70.79000,109.0
70.80200,125.0
70.81400,121.0
70.82600,113.0
70.83800,118.0
70.85000,86.0
70.86200,108.0
70.87400,98.0
70.88600,93.0
70.89800,78.0
70.91000,81.0
70.92200,74.0
70.93400,61.0
70.94600,82.0
70.95800,74.0
70.97000,77.0
70.98200,58.0
70.99400,66.0
71.00600,77.0
71.01800,68.0
71.03000,56.0
71.04200,59.0
71.05400,51.0
71.06600,66.0
71.07800,36.0
71.09000,48.0
71.10200,44.0
71.11400,45.0
71.12600,50.0
71.13800,41.0
71.15000,34.0
71.16200,38.0
71.17400,34.0
71.18600,44.0
71.19800,44.0
71.21000,40.0
71.22200,39.0
71.23400,33.0
71.24600,40.0
71.25800,36.0
71.27000,41.0
71.28200,41.0
71.29400,29.0
71.30600,43.0
71.31800,22.0
71.33000,39.0
71.34200,42.0
71.35400,34.0
71.36600,37.0
71.37800,23.0
71.39000,31.0
71.40200,24.0
71.41400,30.0
71.42600,32.0
71.43800,30.0
71.45000,23.0
71.46200,27.0
71.47400,17.0
71.48600,26.0
71.49800,23.0
71.51000,31.0
71.52200,21.0
71.53400,28.0
71.54600,30.0
71.55800,24.0
71.57000,27.0
71.58200,23.0
71.59400,18.0
71.60600,23.0
71.61800,24.0
71.63000,25.0
71.64200,22.0
71.65400,23.0
71.66600,28.0
71.67800,15.0
71.69000,18.0
71.70200,18.0
71.71400,20.0
71.72600,27.0
71.73800,26.0
71.75000,19.0
71.76200,24.0
71.77400,19.0
71.78600,25.0
71.79800,25.0
71.81000,21.0
71.82200,24.0
71.83400,19.0
71.84600,12.0
71.85800,10.0
71.87000,13.0
71.88200,23.0
71.89400,27.0
71.90600,19.0
71.91800,17.0
71.93000,15.0
71.94200,23.0
71.95400,21.0
71.96600,16.0
71.97800,21.0
71.99000,24.0
72.00200,19.0
72.01400,19.0
72.02600,22.0
72.03800,19.0
72.05000,17.0
72.06200,29.0
72.07400,23.0
72.08600,22.0
72.09800,16.0
72.11000,19.0
72.12200,20.0
72.13400,22.0
72.14600,30.0
72.15800,15.0
72.17000,21.0
72.18200,26.0
72.19400,18.0
72.20600,16.0
72.21800,15.0
72.23000,25.0
72.24200,17.0
72.25400,11.0
72.26600,16.0
72.27800,23.0
72.29000,15.0
72.30200,23.0
72.31400,21.0
72.32600,22.0
72.33800,16.0
72.35000,19.0
72.36200,15.0
72.37400,14.0
72.38600,12.0
72.39800,10.0
72.41000,14.0
72.42200,18.0
72.43400,26.0
72.44600,16.0
72.45800,15.0
72.47000,18.0
72.48200,19.0
72.49400,19.0
72.50600,15.0
72.51800,18.0
72.53000,24.0
72.54200,8.0
72.55400,12.0
72.56600,19.0
72.57800,14.0
72.59000,23.0
72.60200,19.0
72.61400,20.0
72.62600,14.0
72.63800,17.0
72.65000,19.0
72.66200,22.0
72.67400,17.0
72.68600,21.0
72.69800,15.0
72.71000,16.0
72.72200,16.0
72.73400,15.0
72.74600,17.0
72.75800,14.0
72.77000,14.0
72.78200,13.0
72.79400,16.0
72.80600,21.0
72.81800,12.0
72.83000,17.0
72.84200,15.0
72.85400,18.0
72.86600,17.0
72.87800,20.0
72.89000,17.0
72.90200,19.0
72.91400,18.0
72.92600,21.0
72.93800,12.0
72.95000,17.0
72.96200,25.0
72.97400,16.0
72.98600,16.0
72.99800,18.0
73.01000,12.0
73.02200,13.0
73.03400,18.0
73.04600,22.0
73.05800,17.0
73.07000,18.0
73.08200,11.0
73.09400,15.0
73.10600,13.0
73.11800,14.0
73.13000,20.0
73.14200,9.0
73.15400,20.0
73.16600,16.0
73.17800,15.0
73.19000,25.0
73.20200,15.0
73.21400,16.0
73.22600,20.0
73.23800,12.0
73.25000,17.0
73.26200,18.0
73.27400,12.0
73.28600,23.0
73.29800,23.0
73.31000,11.0
73.32200,23.0
73.33400,26.0
73.34600,23.0
73.35800,33.0
73.37000,24.0
73.38200,15.0
73.39400,21.0
73.40600,17.0
73.41800,27.0
73.43000,26.0
73.44200,15.0
73.45400,23.0
73.46600,24.0
73.47800,26.0
73.49000,17.0
73.50200,26.0
73.51400,19.0
73.52600,25.0
73.53800,24.0
73.55000,22.0
73.56200,21.0
73.57400,28.0
73.58600,27.0
73.59800,23.0
73.61000,28.0
73.62200,16.0
73.63400,23.0
73.64600,32.0
73.65800,29.0
73.67000,22.0
73.68200,32.0
73.69400,29.0
73.70600,30.0
73.71800,31.0
73.73000,34.0
73.74200,30.0
73.75400,32.0
73.76600,33.0
73.77800,39.0
73.79000,32.0
73.80200,32.0
73.81400,51.0
73.82600,43.0
73.83800,24.0
73.85000,32.0
73.86200,35.0
73.87400,46.0
73.88600,41.0
73.89800,34.0
73.91000,49.0
73.92200,45.0
73.93400,36.0
73.94600,55.0
73.95800,43.0
73.97000,46.0
73.98200,42.0
73.99400,44.0
74.00600,63.0
74.01800,34.0
74.03000,59.0
74.04200,38.0
74.05400,41.0
74.06600,38.0
74.07800,42.0
74.09000,43.0
74.10200,43.0
74.11400,39.0
74.12600,60.0
74.13800,49.0
74.15000,60.0
74.16200,44.0
74.17400,51.0
74.18600,51.0
74.19800,44.0
74.21000,49.0
74.22200,40.0
74.23400,47.0
74.24600,38.0
74.25800,41.0
74.27000,41.0
74.28200,43.0
74.29400,47.0
74.30600,35.0
74.31800,28.0
74.33000,38.0
74.34200,35.0
74.35400,35.0
74.36600,42.0
74.37800,36.0
74.39000,37.0
74.40200,41.0
74.41400,40.0
74.42600,35.0
74.43800,41.0
74.45000,32.0
74.46200,38.0
74.47400,35.0
74.48600,26.0
74.49800,27.0
74.51000,26.0
74.52200,27.0
74.53400,30.0
74.54600,22.0
74.55800,33.0
74.57000,23.0
74.58200,29.0
74.59400,29.0
74.60600,33.0
74.61800,23.0
74.63000,26.0
74.64200,23.0
74.65400,27.0
74.66600,22.0
74.67800,28.0
74.69000,22.0
74.70200,32.0
74.71400,25.0
74.72600,20.0
74.73800,22.0
74.75000,14.0
74.76200,23.0
74.77400,23.0
74.78600,21.0
74.79800,21.0
74.81000,19.0
74.82200,22.0
74.83400,19.0
74.84600,20.0
74.85800,24.0
74.87000,29.0
74.88200,22.0
74.89400,33.0
74.90600,20.0
74.91800,31.0
74.93000,16.0
74.94200,30.0
74.95400,19.0
74.96600,27.0
74.97800,32.0
74.99000,17.0
75.00200,20.0
75.01400,38.0
75.02600,22.0
75.03800,21.0
75.05000,19.0
75.06200,16.0
75.07400,18.0
75.08600,25.0
75.09800,22.0
75.11000,22.0
75.12200,22.0
75.13400,21.0
75.14600,28.0
75.15800,19.0
75.17000,30.0
75.18200,28.0
75.19400,18.0
75.20600,25.0
75.21800,25.0
75.23000,20.0
75.24200,37.0
75.25400,24.0
75.26600,26.0
75.27800,20.0
75.29000,26.0
75.30200,28.0
75.31400,29.0
75.32600,34.0
75.33800,31.0
75.35000,28.0
75.36200,37.0
75.37400,46.0
75.38600,25.0
75.39800,34.0
75.41000,32.0
75.42200,29.0
75.43400,32.0
75.44600,47.0
75.45800,40.0
75.47000,40.0
75.48200,33.0
75.49400,38.0
75.50600,40.0
75.51800,53.0
75.53000,55.0
75.54200,44.0
75.55400,60.0
75.56600,59.0
75.57800,45.0
75.59000,46.0
75.60200,63.0
75.61400,51.0
75.62600,56.0
75.63800,56.0
75.65000,76.0
75.66200,72.0
75.67400,70.0
75.68600,74.0
75.69800,64.0
75.71000,80.0
75.72200,71.0
75.73400,93.0
75.74600,84.0
75.75800,93.0
75.77000,82.0
75.78200,91.0
75.79400,110.0
75.80600,102.0
75.81800,108.0
75.83000,127.0
75.84200,111.0
75.85400,121.0
75.86600,118.0
75.87800,122.0
75.89000,120.0
75.90200,126.0
75.91400,138.0
75.92600,133.0
75.93800,123.0
75.95000,130.0
75.96200,148.0
75.97400,134.0
75.98600,167.0
75.99800,139.0
76.01000,131.0
76.02200,138.0
76.03400,161.0
76.04600,143.0
76.05800,139.0
76.07000,134.0
76.08200,139.0
76.09400,148.0
76.10600,134.0
76.11800,138.0
76.13000,152.0
76.14200,120.0
76.15400,143.0
76.16600,130.0
76.17800,119.0
76.19000,116.0
76.20200,154.0
76.21400,154.0
76.22600,124.0
76.23800,151.0
76.25000,125.0
76.26200,116.0
76.27400,106.0
76.28600,110.0
76.29800,111.0
76.31000,109.0
76.32200,104.0
76.33400,109.0
76.34600,97.0
76.35800,92.0
76.37000,114.0
76.38200,87.0
76.39400,89.0
76.40600,69.0
76.41800,79.0
76.43000,104.0
76.44200,93.0
76.45400,78.0
76.46600,77.0
76.47800,85.0
76.49000,83.0
76.50200,66.0
76.51400,61.0
76.52600,73.0
76.53800,77.0
76.55000,60.0
76.56200,57.0
76.57400,63.0
76.58600,70.0
76.59800,51.0
76.61000,65.0
76.62200,64.0
76.63400,59.0
76.64600,61.0
76.65800,56.0
76.67000,59.0
76.68200,66.0
76.69400,60.0
76.70600,61.0
76.71800,60.0
76.73000,68.0
76.74200,63.0
76.75400,56.0
76.76600,54.0
76.77800,64.0
76.79000,65.0
76.80200,58.0
76.81400,64.0
76.82600,70.0
76.83800,56.0
76.85000,57.0
76.86200,79.0
76.87400,77.0
76.88600,62.0
76.89800,56.0
76.91000,60.0
76.92200,71.0
76.93400,67.0
76.94600,66.0
76.95800,76.0
76.97000,96.0
76.98200,80.0
76.99400,69.0
77.00600,92.0
77.01800,102.0
77.03000,77.0
77.04200,103.0
77.05400,83.0
77.06600,87.0
77.07800,92.0
77.09000,93.0
77.10200,94.0
77.11400,94.0
77.12600,94.0
77.13800,97.0
77.15000,102.0
77.16200,97.0
77.17400,97.0
77.18600,101.0
77.19800,95.0
77.21000,124.0
77.22200,93.0
77.23400,115.0
77.24600,101.0
77.25800,109.0
77.27000,118.0
77.28200,91.0
77.29400,83.0
77.30600,103.0
77.31800,112.0
77.33000,106.0
77.34200,107.0
77.35400,86.0
77.36600,92.0
77.37800,99.0
77.39000,91.0
77.40200,93.0
77.41400,117.0
77.42600,91.0
77.43800,90.0
77.45000,86.0
77.46200,93.0
77.47400,88.0
77.48600,79.0
77.49800,93.0
77.51000,92.0
77.52200,75.0
77.53400,81.0
77.54600,56.0
77.55800,80.0
77.57000,94.0
77.58200,66.0
77.59400,88.0
77.60600,59.0
77.61800,66.0
77.63000,52.0
77.64200,55.0
77.65400,41.0
77.66600,60.0
77.67800,56.0
77.69000,56.0
77.70200,47.0
77.71400,57.0
77.72600,47.0
77.73800,48.0
77.75000,49.0
77.76200,48.0
77.77400,53.0
77.78600,34.0
77.79800,39.0
77.81000,47.0
77.82200,37.0
77.83400,35.0
77.84600,37.0
77.85800,40.0
77.87000,33.0
77.88200,33.0
77.89400,35.0
77.90600,32.0
77.91800,32.0
77.93000,32.0
77.94200,31.0
77.95400,28.0
77.96600,40.0
77.97800,28.0
77.99000,32.0
78.00200,34.0
78.01400,24.0
78.02600,34.0
78.03800,23.0
78.05000,21.0
78.06200,35.0
78.07400,31.0
78.08600,28.0
78.09800,27.0
78.11000,23.0
78.12200,29.0
78.13400,25.0
78.14600,30.0
78.15800,25.0
78.17000,28.0
78.18200,24.0
78.19400,23.0
78.20600,26.0
78.21800,26.0
78.23000,22.0
78.24200,27.0
78.25400,31.0
78.26600,30.0
78.27800,24.0
78.29000,23.0
78.30200,22.0
78.31400,21.0
78.32600,15.0
78.33800,24.0
78.35000,26.0
78.36200,27.0
78.37400,24.0
78.38600,28.0
78.39800,24.0
78.41000,30.0
78.42200,19.0
78.43400,33.0
78.44600,20.0
78.45800,13.0
78.47000,21.0
78.48200,27.0
78.49400,24.0
78.50600,19.0
78.51800,37.0
78.53000,17.0
78.54200,16.0
78.55400,21.0
78.56600,19.0
78.57800,20.0
78.59000,25.0
78.60200,19.0
78.61400,17.0
78.62600,21.0
78.63800,24.0
78.65000,24.0
78.66200,21.0
78.67400,14.0
78.68600,19.0
78.69800,28.0
78.71000,26.0
78.72200,25.0
78.73400,23.0
78.74600,23.0
78.75800,19.0
78.77000,15.0
78.78200,20.0
78.79400,18.0
78.80600,25.0
78.81800,20.0
78.83000,20.0
78.84200,29.0
78.85400,25.0
78.86600,25.0
78.87800,23.0
78.89000,18.0
78.90200,30.0
78.91400,20.0
78.92600,24.0
78.93800,20.0
78.95000,19.0
78.96200,15.0
78.97400,17.0
78.98600,16.0
78.99800,18.0
79.01000,22.0
79.02200,26.0
79.03400,18.0
79.04600,19.0
79.05800,24.0
79.07000,16.0
79.08200,16.0
79.09400,23.0
79.10600,15.0
79.11800,22.0
79.13000,20.0
79.14200,17.0
79.15400,22.0
79.16600,24.0
79.17800,16.0
79.19000,17.0
79.20200,10.0
79.21400,18.0
79.22600,15.0
79.23800,18.0
79.25000,18.0
79.26200,12.0
79.27400,20.0
79.28600,11.0
79.29800,27.0
79.31000,27.0
79.32200,25.0
79.33400,19.0
79.34600,20.0
79.35800,22.0
79.37000,16.0
79.38200,14.0
79.39400,15.0
79.40600,25.0
79.41800,17.0
79.43000,13.0
79.44200,16.0
79.45400,22.0
79.46600,20.0
79.47800,18.0
79.49000,25.0
79.50200,19.0
79.51400,19.0
79.52600,21.0
79.53800,10.0
79.55000,20.0
79.56200,25.0
79.57400,11.0
79.58600,25.0
79.59800,16.0
79.61000,14.0
79.62200,16.0
79.63400,18.0
79.64600,15.0
79.65800,18.0
79.67000,16.0
79.68200,18.0
79.69400,14.0
79.70600,13.0
79.71800,14.0
79.73000,17.0
79.74200,9.0
79.75400,17.0
79.76600,17.0
79.77800,16.0
79.79000,23.0
79.80200,21.0
79.81400,21.0
79.82600,13.0
79.83800,15.0
79.85000,15.0
79.86200,16.0
79.87400,17.0
79.88600,21.0
79.89800,14.0
79.91000,15.0
79.92200,13.0
79.93400,18.0
79.94600,19.0
79.95800,8.0
79.97000,7.0
79.98200,14.0
79.99400,20.0
