[Measurement conditions]
Sample identification,
Comment - 1,"Configuration=Filmes Finos 19_1_2015, Owner=User-1, Creation date=19/01/2015 21:17:15"
Comment - 2,"Goniometer=PW3050/60 (Theta/Theta); Minimum step size 2Theta:0.001; Minimum step size Omega:0.001"
Comment - 3,"Sample stage=PW3071/xx Bracket"
Comment - 4,"Diffractometer system=XPERT-PRO"
Comment - 5,"Measurement program=C:\PANalytical\Data Collector\Programs\BraggBrentano.xrdmp, Identifier={1069A1B4-F515-4840-9AC8-848F644ED6C5}"
Anode material,Cu
K-Alpha1 wavelength,1.5405980
K-Alpha2 wavelength,1.5444260
Ratio K-Alpha2/K-Alpha1,0.500
Divergence slit,Fixed,0.76mm
Receiving slit,0.10
Monochromator used,YES
Generator voltage, 40
Tube current, 40
File date and time,14/Jun/2018 12:44
Unit cell,
h k l, 0 0 0
Scan axis,Gonio
Scan range,20.00000,80.00000
Scan step size,0.0120000
No. of points, 5000
Scan type,CONTINUOUS
Time per step,1.50
[Scan points]
Angle,Intensity
20.00600,27.0
20.01800,22.0
20.03000,26.0
20.04200,25.0
20.05400,27.0
20.06600,28.0
20.07800,29.0
20.09000,24.0
20.10200,16.0
20.11400,21.0
20.12600,35.0
20.13800,30.0
20.15000,27.0
20.16200,16.0
20.17400,26.0
20.18600,31.0
20.19800,26.0
20.21000,23.0
20.22200,19.0
20.23400,21.0
20.24600,25.0
20.25800,29.0
20.27000,20.0
20.28200,26.0
20.29400,28.0
20.30600,25.0
20.31800,21.0
20.33000,30.0
20.34200,24.0
20.35400,23.0
20.36600,17.0
20.37800,24.0
20.39000,25.0
20.40200,38.0
20.41400,28.0
20.42600,30.0
20.43800,25.0
20.45000,27.0
20.46200,20.0
20.47400,36.0
20.48600,20.0
20.49800,29.0
20.51000,22.0
20.52200,22.0
20.53400,21.0
20.54600,25.0
20.55800,30.0
20.57000,24.0
20.58200,25.0
20.59400,17.0
20.60600,21.0
20.61800,18.0
20.63000,36.0
20.64200,22.0
20.65400,25.0
20.66600,37.0
20.67800,23.0
20.69000,20.0
20.70200,27.0
20.71400,15.0
20.72600,25.0
20.73800,21.0
20.75000,25.0
20.76200,31.0
20.77400,28.0
20.78600,23.0
20.79800,29.0
20.81000,27.0
20.82200,30.0
20.83400,25.0
20.84600,17.0
20.85800,22.0
20.87000,22.0
20.88200,24.0
20.89400,20.0
20.90600,15.0
20.91800,31.0
20.93000,24.0
20.94200,19.0
20.95400,21.0
20.96600,33.0
20.97800,24.0
20.99000,20.0
21.00200,21.0
21.01400,24.0
21.02600,19.0
21.03800,17.0
21.05000,19.0
21.06200,26.0
21.07400,22.0
21.08600,32.0
21.09800,26.0
21.11000,24.0
21.12200,22.0
21.13400,24.0
21.14600,19.0
21.15800,17.0
21.17000,21.0
21.18200,24.0
21.19400,27.0
21.20600,25.0
21.21800,18.0
21.23000,25.0
21.24200,18.0
21.25400,20.0
21.26600,26.0
21.27800,28.0
21.29000,16.0
21.30200,25.0
21.31400,30.0
21.32600,22.0
21.33800,23.0
21.35000,16.0
21.36200,19.0
21.37400,20.0
21.38600,22.0
21.39800,23.0
21.41000,24.0
21.42200,20.0
21.43400,24.0
21.44600,28.0
21.45800,22.0
21.47000,20.0
21.48200,26.0
21.49400,20.0
21.50600,15.0
21.51800,17.0
21.53000,20.0
21.54200,18.0
21.55400,22.0
21.56600,22.0
21.57800,21.0
21.59000,15.0
21.60200,19.0
21.61400,21.0
21.62600,21.0
21.63800,21.0
21.65000,20.0
21.66200,22.0
21.67400,14.0
21.68600,21.0
21.69800,15.0
21.71000,23.0
21.72200,27.0
21.73400,24.0
21.74600,24.0
21.75800,37.0
21.77000,32.0
21.78200,15.0
21.79400,21.0
21.80600,24.0
21.81800,26.0
21.83000,25.0
21.84200,18.0
21.85400,25.0
21.86600,21.0
21.87800,19.0
21.89000,28.0
21.90200,30.0
21.91400,18.0
21.92600,26.0
21.93800,16.0
21.95000,25.0
21.96200,27.0
21.97400,21.0
21.98600,19.0
21.99800,21.0
22.01000,31.0
22.02200,21.0
22.03400,22.0
22.04600,18.0
22.05800,24.0
22.07000,23.0
22.08200,18.0
22.09400,18.0
22.10600,26.0
22.11800,17.0
22.13000,27.0
22.14200,22.0
22.15400,22.0
22.16600,17.0
22.17800,29.0
22.19000,19.0
22.20200,28.0
22.21400,26.0
22.22600,16.0
22.23800,23.0
22.25000,22.0
22.26200,20.0
22.27400,23.0
22.28600,26.0
22.29800,19.0
22.31000,31.0
22.32200,23.0
22.33400,23.0
22.34600,34.0
22.35800,16.0
22.37000,26.0
22.38200,31.0
22.39400,18.0
22.40600,29.0
22.41800,19.0
22.43000,24.0
22.44200,19.0
22.45400,25.0
22.46600,25.0
22.47800,23.0
22.49000,25.0
22.50200,29.0
22.51400,24.0
22.52600,19.0
22.53800,29.0
22.55000,21.0
22.56200,19.0
22.57400,15.0
22.58600,16.0
22.59800,17.0
22.61000,14.0
22.62200,24.0
22.63400,15.0
22.64600,12.0
22.65800,21.0
22.67000,12.0
22.68200,15.0
22.69400,18.0
22.70600,26.0
22.71800,17.0
22.73000,29.0
22.74200,14.0
22.75400,25.0
22.76600,22.0
22.77800,20.0
22.79000,25.0
22.80200,22.0
22.81400,15.0
22.82600,25.0
22.83800,22.0
22.85000,16.0
22.86200,20.0
22.87400,23.0
22.88600,23.0
22.89800,24.0
22.91000,21.0
22.92200,28.0
22.93400,19.0
22.94600,33.0
22.95800,23.0
22.97000,28.0
22.98200,19.0
22.99400,26.0
23.00600,21.0
23.01800,29.0
23.03000,20.0
23.04200,26.0
23.05400,26.0
23.06600,27.0
23.07800,20.0
23.09000,14.0
23.10200,27.0
23.11400,19.0
23.12600,15.0
23.13800,30.0
23.15000,30.0
23.16200,17.0
23.17400,16.0
23.18600,23.0
23.19800,19.0
23.21000,24.0
23.22200,24.0
23.23400,20.0
23.24600,15.0
23.25800,19.0
23.27000,17.0
23.28200,18.0
23.29400,19.0
23.30600,18.0
23.31800,23.0
23.33000,17.0
23.34200,25.0
23.35400,26.0
23.36600,24.0
23.37800,17.0
23.39000,24.0
23.40200,19.0
23.41400,19.0
23.42600,21.0
23.43800,19.0
23.45000,22.0
23.46200,25.0
23.47400,16.0
23.48600,18.0
23.49800,23.0
23.51000,20.0
23.52200,25.0
23.53400,27.0
23.54600,23.0
23.55800,24.0
23.57000,22.0
23.58200,16.0
23.59400,23.0
23.60600,23.0
23.61800,19.0
23.63000,17.0
23.64200,15.0
23.65400,18.0
23.66600,18.0
23.67800,27.0
23.69000,14.0
23.70200,22.0
23.71400,24.0
23.72600,20.0
23.73800,18.0
23.75000,32.0
23.76200,18.0
23.77400,17.0
23.78600,28.0
23.79800,17.0
23.81000,31.0
23.82200,16.0
23.83400,15.0
23.84600,21.0
23.85800,22.0
23.87000,18.0
23.88200,23.0
23.89400,12.0
23.90600,25.0
23.91800,26.0
23.93000,18.0
23.94200,30.0
23.95400,30.0
23.96600,23.0
23.97800,20.0
23.99000,16.0
24.00200,23.0
24.01400,25.0
24.02600,19.0
24.03800,29.0
24.05000,22.0
24.06200,24.0
24.07400,23.0
24.08600,15.0
24.09800,16.0
24.11000,18.0
24.12200,11.0
24.13400,20.0
24.14600,27.0
24.15800,21.0
24.17000,24.0
24.18200,24.0
24.19400,14.0
24.20600,15.0
24.21800,18.0
24.23000,21.0
24.24200,14.0
24.25400,26.0
24.26600,22.0
24.27800,22.0
24.29000,21.0
24.30200,27.0
24.31400,27.0
24.32600,31.0
24.33800,16.0
24.35000,18.0
24.36200,17.0
24.37400,19.0
24.38600,27.0
24.39800,14.0
24.41000,18.0
24.42200,26.0
24.43400,17.0
24.44600,20.0
24.45800,11.0
24.47000,21.0
24.48200,29.0
24.49400,15.0
24.50600,24.0
24.51800,18.0
24.53000,20.0
24.54200,21.0
24.55400,18.0
24.56600,19.0
24.57800,25.0
24.59000,22.0
24.60200,26.0
24.61400,26.0
24.62600,15.0
24.63800,34.0
24.65000,18.0
24.66200,28.0
24.67400,28.0
24.68600,18.0
24.69800,18.0
24.71000,16.0
24.72200,22.0
24.73400,26.0
24.74600,16.0
24.75800,26.0
24.77000,22.0
24.78200,25.0
24.79400,28.0
24.80600,26.0
24.81800,22.0
24.83000,14.0
24.84200,20.0
24.85400,24.0
24.86600,26.0
24.87800,23.0
24.89000,33.0
24.90200,20.0
24.91400,26.0
24.92600,23.0
24.93800,24.0
24.95000,27.0
24.96200,30.0
24.97400,22.0
24.98600,27.0
24.99800,13.0
25.01000,21.0
25.02200,17.0
25.03400,24.0
25.04600,17.0
25.05800,13.0
25.07000,30.0
25.08200,22.0
25.09400,30.0
25.10600,26.0
25.11800,25.0
25.13000,23.0
25.14200,21.0
25.15400,20.0
25.16600,21.0
25.17800,13.0
25.19000,30.0
25.20200,17.0
25.21400,24.0
25.22600,15.0
25.23800,25.0
25.25000,23.0
25.26200,18.0
25.27400,22.0
25.28600,26.0
25.29800,27.0
25.31000,18.0
25.32200,19.0
25.33400,21.0
25.34600,15.0
25.35800,18.0
25.37000,25.0
25.38200,20.0
25.39400,14.0
25.40600,17.0
25.41800,20.0
25.43000,26.0
25.44200,11.0
25.45400,17.0
25.46600,17.0
25.47800,23.0
25.49000,29.0
25.50200,21.0
25.51400,30.0
25.52600,24.0
25.53800,24.0
25.55000,18.0
25.56200,17.0
25.57400,22.0
25.58600,13.0
25.59800,23.0
25.61000,17.0
25.62200,14.0
25.63400,9.0
25.64600,19.0
25.65800,24.0
25.67000,19.0
25.68200,17.0
25.69400,13.0
25.70600,25.0
25.71800,21.0
25.73000,19.0
25.74200,23.0
25.75400,20.0
25.76600,25.0
25.77800,15.0
25.79000,26.0
25.80200,19.0
25.81400,21.0
25.82600,16.0
25.83800,21.0
25.85000,23.0
25.86200,20.0
25.87400,20.0
25.88600,21.0
25.89800,16.0
25.91000,21.0
25.92200,21.0
25.93400,23.0
25.94600,19.0
25.95800,23.0
25.97000,15.0
25.98200,14.0
25.99400,13.0
26.00600,21.0
26.01800,21.0
26.03000,15.0
26.04200,15.0
26.05400,19.0
26.06600,18.0
26.07800,23.0
26.09000,22.0
26.10200,15.0
26.11400,17.0
26.12600,19.0
26.13800,22.0
26.15000,15.0
26.16200,25.0
26.17400,15.0
26.18600,25.0
26.19800,11.0
26.21000,31.0
26.22200,28.0
26.23400,24.0
26.24600,23.0
26.25800,17.0
26.27000,24.0
26.28200,19.0
26.29400,18.0
26.30600,18.0
26.31800,16.0
26.33000,11.0
26.34200,23.0
26.35400,6.0
26.36600,24.0
26.37800,11.0
26.39000,21.0
26.40200,20.0
26.41400,18.0
26.42600,17.0
26.43800,19.0
26.45000,18.0
26.46200,14.0
26.47400,15.0
26.48600,21.0
26.49800,18.0
26.51000,21.0
26.52200,21.0
26.53400,22.0
26.54600,15.0
26.55800,18.0
26.57000,18.0
26.58200,20.0
26.59400,18.0
26.60600,20.0
26.61800,27.0
26.63000,22.0
26.64200,18.0
26.65400,18.0
26.66600,26.0
26.67800,16.0
26.69000,23.0
26.70200,21.0
26.71400,12.0
26.72600,18.0
26.73800,17.0
26.75000,18.0
26.76200,19.0
26.77400,16.0
26.78600,16.0
26.79800,25.0
26.81000,17.0
26.82200,15.0
26.83400,12.0
26.84600,19.0
26.85800,21.0
26.87000,18.0
26.88200,17.0
26.89400,18.0
26.90600,22.0
26.91800,14.0
26.93000,24.0
26.94200,22.0
26.95400,27.0
26.96600,20.0
26.97800,18.0
26.99000,17.0
27.00200,15.0
27.01400,13.0
27.02600,16.0
27.03800,20.0
27.05000,19.0
27.06200,18.0
27.07400,18.0
27.08600,22.0
27.09800,20.0
27.11000,19.0
27.12200,14.0
27.13400,17.0
27.14600,18.0
27.15800,15.0
27.17000,25.0
27.18200,20.0
27.19400,17.0
27.20600,24.0
27.21800,22.0
27.23000,17.0
27.24200,18.0
27.25400,27.0
27.26600,15.0
27.27800,16.0
27.29000,19.0
27.30200,19.0
27.31400,18.0
27.32600,17.0
27.33800,18.0
27.35000,19.0
27.36200,16.0
27.37400,20.0
27.38600,15.0
27.39800,13.0
27.41000,23.0
27.42200,19.0
27.43400,21.0
27.44600,22.0
27.45800,16.0
27.47000,10.0
27.48200,27.0
27.49400,18.0
27.50600,7.0
27.51800,14.0
27.53000,13.0
27.54200,16.0
27.55400,22.0
27.56600,18.0
27.57800,16.0
27.59000,16.0
27.60200,18.0
27.61400,22.0
27.62600,23.0
27.63800,14.0
27.65000,18.0
27.66200,15.0
27.67400,22.0
27.68600,16.0
27.69800,20.0
27.71000,19.0
27.72200,11.0
27.73400,18.0
27.74600,12.0
27.75800,21.0
27.77000,14.0
27.78200,16.0
27.79400,14.0
27.80600,18.0
27.81800,18.0
27.83000,11.0
27.84200,17.0
27.85400,14.0
27.86600,19.0
27.87800,17.0
27.89000,17.0
27.90200,14.0
27.91400,11.0
27.92600,20.0
27.93800,24.0
27.95000,14.0
27.96200,12.0
27.97400,18.0
27.98600,17.0
27.99800,15.0
28.01000,21.0
28.02200,17.0
28.03400,14.0
28.04600,17.0
28.05800,20.0
28.07000,17.0
28.08200,14.0
28.09400,19.0
28.10600,18.0
28.11800,11.0
28.13000,15.0
28.14200,19.0
28.15400,19.0
28.16600,15.0
28.17800,13.0
28.19000,17.0
28.20200,18.0
28.21400,15.0
28.22600,13.0
28.23800,23.0
28.25000,17.0
28.26200,21.0
28.27400,16.0
28.28600,17.0
28.29800,20.0
28.31000,14.0
28.32200,18.0
28.33400,17.0
28.34600,17.0
28.35800,14.0
28.37000,17.0
28.38200,8.0
28.39400,20.0
28.40600,26.0
28.41800,18.0
28.43000,21.0
28.44200,18.0
28.45400,21.0
28.46600,20.0
28.47800,14.0
28.49000,20.0
28.50200,19.0
28.51400,17.0
28.52600,17.0
28.53800,12.0
28.55000,20.0
28.56200,17.0
28.57400,22.0
28.58600,14.0
28.59800,21.0
28.61000,20.0
28.62200,14.0
28.63400,15.0
28.64600,24.0
28.65800,21.0
28.67000,19.0
28.68200,8.0
28.69400,22.0
28.70600,14.0
28.71800,26.0
28.73000,12.0
28.74200,17.0
28.75400,18.0
28.76600,19.0
28.77800,21.0
28.79000,21.0
28.80200,21.0
28.81400,22.0
28.82600,15.0
28.83800,22.0
28.85000,17.0
28.86200,21.0
28.87400,21.0
28.88600,15.0
28.89800,16.0
28.91000,20.0
28.92200,14.0
28.93400,16.0
28.94600,15.0
28.95800,20.0
28.97000,13.0
28.98200,16.0
28.99400,19.0
29.00600,13.0
29.01800,23.0
29.03000,16.0
29.04200,24.0
29.05400,13.0
29.06600,21.0
29.07800,16.0
29.09000,16.0
29.10200,23.0
29.11400,22.0
29.12600,16.0
29.13800,15.0
29.15000,21.0
29.16200,15.0
29.17400,19.0
29.18600,17.0
29.19800,15.0
29.21000,16.0
29.22200,14.0
29.23400,14.0
29.24600,14.0
29.25800,12.0
29.27000,18.0
29.28200,19.0
29.29400,13.0
29.30600,21.0
29.31800,17.0
29.33000,19.0
29.34200,18.0
29.35400,22.0
29.36600,10.0
29.37800,20.0
29.39000,11.0
29.40200,21.0
29.41400,23.0
29.42600,15.0
29.43800,16.0
29.45000,15.0
29.46200,21.0
29.47400,14.0
29.48600,21.0
29.49800,17.0
29.51000,16.0
29.52200,19.0
29.53400,14.0
29.54600,11.0
29.55800,23.0
29.57000,17.0
29.58200,18.0
29.59400,19.0
29.60600,13.0
29.61800,20.0
29.63000,14.0
29.64200,13.0
29.65400,18.0
29.66600,11.0
29.67800,14.0
29.69000,10.0
29.70200,16.0
29.71400,13.0
29.72600,19.0
29.73800,21.0
29.75000,13.0
29.76200,18.0
29.77400,17.0
29.78600,19.0
29.79800,27.0
29.81000,14.0
29.82200,17.0
29.83400,17.0
29.84600,21.0
29.85800,26.0
29.87000,11.0
29.88200,12.0
29.89400,19.0
29.90600,16.0
29.91800,19.0
29.93000,14.0
29.94200,20.0
29.95400,20.0
29.96600,16.0
29.97800,16.0
29.99000,8.0
30.00200,10.0
30.01400,11.0
30.02600,12.0
30.03800,19.0
30.05000,18.0
30.06200,18.0
30.07400,19.0
30.08600,22.0
30.09800,12.0
30.11000,12.0
30.12200,19.0
30.13400,14.0
30.14600,18.0
30.15800,13.0
30.17000,30.0
30.18200,23.0
30.19400,27.0
30.20600,13.0
30.21800,17.0
30.23000,24.0
30.24200,19.0
30.25400,23.0
30.26600,16.0
30.27800,21.0
30.29000,17.0
30.30200,26.0
30.31400,15.0
30.32600,16.0
30.33800,21.0
30.35000,24.0
30.36200,16.0
30.37400,15.0
30.38600,16.0
30.39800,15.0
30.41000,19.0
30.42200,12.0
30.43400,8.0
30.44600,15.0
30.45800,15.0
30.47000,9.0
30.48200,23.0
30.49400,20.0
30.50600,20.0
30.51800,24.0
30.53000,21.0
30.54200,8.0
30.55400,19.0
30.56600,20.0
30.57800,10.0
30.59000,15.0
30.60200,26.0
30.61400,17.0
30.62600,18.0
30.63800,14.0
30.65000,15.0
30.66200,14.0
30.67400,17.0
30.68600,17.0
30.69800,14.0
30.71000,15.0
30.72200,15.0
30.73400,14.0
30.74600,19.0
30.75800,21.0
30.77000,20.0
30.78200,15.0
30.79400,14.0
30.80600,20.0
30.81800,17.0
30.83000,22.0
30.84200,16.0
30.85400,20.0
30.86600,21.0
30.87800,19.0
30.89000,22.0
30.90200,12.0
30.91400,19.0
30.92600,19.0
30.93800,16.0
30.95000,20.0
30.96200,20.0
30.97400,22.0
30.98600,19.0
30.99800,21.0
31.01000,18.0
31.02200,22.0
31.03400,14.0
31.04600,18.0
31.05800,27.0
31.07000,22.0
31.08200,16.0
31.09400,16.0
31.10600,12.0
31.11800,34.0
31.13000,20.0
31.14200,23.0
31.15400,27.0
31.16600,15.0
31.17800,22.0
31.19000,16.0
31.20200,26.0
31.21400,15.0
31.22600,23.0
31.23800,11.0
31.25000,17.0
31.26200,16.0
31.27400,16.0
31.28600,23.0
31.29800,25.0
31.31000,14.0
31.32200,19.0
31.33400,16.0
31.34600,16.0
31.35800,19.0
31.37000,26.0
31.38200,27.0
31.39400,19.0
31.40600,18.0
31.41800,21.0
31.43000,21.0
31.44200,16.0
31.45400,23.0
31.46600,17.0
31.47800,28.0
31.49000,14.0
31.50200,24.0
31.51400,18.0
31.52600,16.0
31.53800,27.0
31.55000,15.0
31.56200,20.0
31.57400,22.0
31.58600,29.0
31.59800,22.0
31.61000,20.0
31.62200,19.0
31.63400,23.0
31.64600,20.0
31.65800,23.0
31.67000,27.0
31.68200,21.0
31.69400,22.0
31.70600,21.0
31.71800,22.0
31.73000,14.0
31.74200,17.0
31.75400,20.0
31.76600,19.0
31.77800,17.0
31.79000,20.0
31.80200,14.0
31.81400,15.0
31.82600,20.0
31.83800,28.0
31.85000,18.0
31.86200,15.0
31.87400,30.0
31.88600,20.0
31.89800,20.0
31.91000,26.0
31.92200,24.0
31.93400,12.0
31.94600,20.0
31.95800,19.0
31.97000,27.0
31.98200,19.0
31.99400,15.0
32.00600,26.0
32.01800,20.0
32.03000,24.0
32.04200,29.0
32.05400,19.0
32.06600,20.0
32.07800,22.0
32.09000,18.0
32.10200,16.0
32.11400,25.0
32.12600,21.0
32.13800,21.0
32.15000,24.0
32.16200,32.0
32.17400,36.0
32.18600,20.0
32.19800,27.0
32.21000,35.0
32.22200,21.0
32.23400,24.0
32.24600,23.0
32.25800,26.0
32.27000,24.0
32.28200,21.0
32.29400,19.0
32.30600,23.0
32.31800,19.0
32.33000,24.0
32.34200,26.0
32.35400,21.0
32.36600,25.0
32.37800,26.0
32.39000,29.0
32.40200,18.0
32.41400,26.0
32.42600,21.0
32.43800,21.0
32.45000,24.0
32.46200,27.0
32.47400,18.0
32.48600,18.0
32.49800,26.0
32.51000,26.0
32.52200,19.0
32.53400,29.0
32.54600,17.0
32.55800,20.0
32.57000,15.0
32.58200,16.0
32.59400,17.0
32.60600,23.0
32.61800,24.0
32.63000,16.0
32.64200,22.0
32.65400,26.0
32.66600,26.0
32.67800,18.0
32.69000,27.0
32.70200,20.0
32.71400,23.0
32.72600,19.0
32.73800,22.0
32.75000,16.0
32.76200,19.0
32.77400,19.0
32.78600,11.0
32.79800,14.0
32.81000,21.0
32.82200,24.0
32.83400,20.0
32.84600,13.0
32.85800,29.0
32.87000,20.0
32.88200,25.0
32.89400,26.0
32.90600,19.0
32.91800,19.0
32.93000,21.0
32.94200,25.0
32.95400,30.0
32.96600,24.0
32.97800,11.0
32.99000,9.0
33.00200,28.0
33.01400,30.0
33.02600,18.0
33.03800,20.0
33.05000,11.0
33.06200,24.0
33.07400,21.0
33.08600,24.0
33.09800,23.0
33.11000,15.0
33.12200,21.0
33.13400,20.0
33.14600,21.0
33.15800,21.0
33.17000,16.0
33.18200,16.0
33.19400,21.0
33.20600,19.0
33.21800,15.0
33.23000,13.0
33.24200,23.0
33.25400,15.0
33.26600,18.0
33.27800,21.0
33.29000,17.0
33.30200,26.0
33.31400,22.0
33.32600,20.0
33.33800,16.0
33.35000,15.0
33.36200,16.0
33.37400,23.0
33.38600,30.0
33.39800,19.0
33.41000,9.0
33.42200,19.0
33.43400,18.0
33.44600,17.0
33.45800,21.0
33.47000,19.0
33.48200,19.0
33.49400,22.0
33.50600,18.0
33.51800,21.0
33.53000,24.0
33.54200,23.0
33.55400,18.0
33.56600,23.0
33.57800,22.0
33.59000,21.0
33.60200,26.0
33.61400,18.0
33.62600,21.0
33.63800,18.0
33.65000,27.0
33.66200,16.0
33.67400,18.0
33.68600,18.0
33.69800,24.0
33.71000,17.0
33.72200,19.0
33.73400,28.0
33.74600,26.0
33.75800,27.0
33.77000,22.0
33.78200,24.0
33.79400,28.0
33.80600,22.0
33.81800,28.0
33.83000,17.0
33.84200,22.0
33.85400,27.0
33.86600,18.0
33.87800,22.0
33.89000,16.0
33.90200,25.0
33.91400,24.0
33.92600,32.0
33.93800,25.0
33.95000,16.0
33.96200,25.0
33.97400,17.0
33.98600,27.0
33.99800,41.0
34.01000,27.0
34.02200,24.0
34.03400,33.0
34.04600,26.0
34.05800,16.0
34.07000,29.0
34.08200,28.0
34.09400,22.0
34.10600,40.0
34.11800,26.0
34.13000,23.0
34.14200,22.0
34.15400,22.0
34.16600,20.0
34.17800,30.0
34.19000,42.0
34.20200,38.0
34.21400,31.0
34.22600,36.0
34.23800,25.0
34.25000,23.0
34.26200,38.0
34.27400,36.0
34.28600,42.0
34.29800,30.0
34.31000,29.0
34.32200,41.0
34.33400,44.0
34.34600,43.0
34.35800,48.0
34.37000,53.0
34.38200,56.0
34.39400,43.0
34.40600,38.0
34.41800,47.0
34.43000,34.0
34.44200,53.0
34.45400,44.0
34.46600,50.0
34.47800,56.0
34.49000,46.0
34.50200,58.0
34.51400,58.0
34.52600,66.0
34.53800,66.0
34.55000,68.0
34.56200,74.0
34.57400,92.0
34.58600,91.0
34.59800,105.0
34.61000,64.0
34.62200,107.0
34.63400,114.0
34.64600,117.0
34.65800,96.0
34.67000,115.0
34.68200,106.0
34.69400,122.0
34.70600,133.0
34.71800,123.0
34.73000,139.0
34.74200,150.0
34.75400,133.0
34.76600,172.0
34.77800,157.0
34.79000,180.0
34.80200,189.0
34.81400,168.0
34.82600,198.0
34.83800,228.0
34.85000,229.0
34.86200,218.0
34.87400,211.0
34.88600,242.0
34.89800,243.0
34.91000,222.0
34.92200,253.0
34.93400,244.0
34.94600,223.0
34.95800,256.0
34.97000,236.0
34.98200,238.0
34.99400,249.0
35.00600,274.0
35.01800,234.0
35.03000,229.0
35.04200,229.0
35.05400,238.0
35.06600,249.0
35.07800,233.0
35.09000,235.0
35.10200,226.0
35.11400,218.0
35.12600,224.0
35.13800,204.0
35.15000,195.0
35.16200,201.0
35.17400,189.0
35.18600,140.0
35.19800,210.0
35.21000,194.0
35.22200,167.0
35.23400,152.0
35.24600,150.0
35.25800,143.0
35.27000,143.0
35.28200,144.0
35.29400,115.0
35.30600,141.0
35.31800,104.0
35.33000,110.0
35.34200,101.0
35.35400,103.0
35.36600,89.0
35.37800,97.0
35.39000,93.0
35.40200,78.0
35.41400,86.0
35.42600,97.0
35.43800,77.0
35.45000,86.0
35.46200,65.0
35.47400,61.0
35.48600,71.0
35.49800,61.0
35.51000,69.0
35.52200,69.0
35.53400,68.0
35.54600,57.0
35.55800,57.0
35.57000,57.0
35.58200,48.0
35.59400,52.0
35.60600,41.0
35.61800,48.0
35.63000,56.0
35.64200,53.0
35.65400,41.0
35.66600,37.0
35.67800,42.0
35.69000,41.0
35.70200,33.0
35.71400,44.0
35.72600,37.0
35.73800,39.0
35.75000,42.0
35.76200,39.0
35.77400,37.0
35.78600,34.0
35.79800,28.0
35.81000,43.0
35.82200,26.0
35.83400,39.0
35.84600,39.0
35.85800,38.0
35.87000,43.0
35.88200,39.0
35.89400,31.0
35.90600,31.0
35.91800,36.0
35.93000,41.0
35.94200,38.0
35.95400,33.0
35.96600,44.0
35.97800,41.0
35.99000,29.0
36.00200,39.0
36.01400,36.0
36.02600,45.0
36.03800,41.0
36.05000,34.0
36.06200,34.0
36.07400,40.0
36.08600,33.0
36.09800,46.0
36.11000,37.0
36.12200,34.0
36.13400,44.0
36.14600,39.0
36.15800,51.0
36.17000,53.0
36.18200,43.0
36.19400,58.0
36.20600,41.0
36.21800,46.0
36.23000,46.0
36.24200,47.0
36.25400,40.0
36.26600,37.0
36.27800,52.0
36.29000,46.0
36.30200,42.0
36.31400,46.0
36.32600,38.0
36.33800,46.0
36.35000,47.0
36.36200,49.0
36.37400,35.0
36.38600,42.0
36.39800,48.0
36.41000,42.0
36.42200,35.0
36.43400,47.0
36.44600,43.0
36.45800,46.0
36.47000,28.0
36.48200,44.0
36.49400,46.0
36.50600,43.0
36.51800,37.0
36.53000,39.0
36.54200,46.0
36.55400,37.0
36.56600,29.0
36.57800,44.0
36.59000,45.0
36.60200,36.0
36.61400,43.0
36.62600,35.0
36.63800,34.0
36.65000,36.0
36.66200,49.0
36.67400,45.0
36.68600,36.0
36.69800,34.0
36.71000,36.0
36.72200,34.0
36.73400,37.0
36.74600,41.0
36.75800,37.0
36.77000,54.0
36.78200,37.0
36.79400,39.0
36.80600,41.0
36.81800,47.0
36.83000,40.0
36.84200,31.0
36.85400,32.0
36.86600,28.0
36.87800,36.0
36.89000,31.0
36.90200,30.0
36.91400,33.0
36.92600,40.0
36.93800,50.0
36.95000,34.0
36.96200,34.0
36.97400,41.0
36.98600,33.0
36.99800,36.0
37.01000,46.0
37.02200,36.0
37.03400,48.0
37.04600,49.0
37.05800,42.0
37.07000,42.0
37.08200,34.0
37.09400,37.0
37.10600,42.0
37.11800,37.0
37.13000,38.0
37.14200,42.0
37.15400,29.0
37.16600,34.0
37.17800,43.0
37.19000,38.0
37.20200,35.0
37.21400,41.0
37.22600,35.0
37.23800,37.0
37.25000,40.0
37.26200,40.0
37.27400,45.0
37.28600,40.0
37.29800,52.0
37.31000,33.0
37.32200,46.0
37.33400,48.0
37.34600,34.0
37.35800,25.0
37.37000,36.0
37.38200,52.0
37.39400,48.0
37.40600,42.0
37.41800,60.0
37.43000,43.0
37.44200,39.0
37.45400,50.0
37.46600,40.0
37.47800,40.0
37.49000,46.0
37.50200,36.0
37.51400,46.0
37.52600,43.0
37.53800,33.0
37.55000,66.0
37.56200,45.0
37.57400,55.0
37.58600,58.0
37.59800,53.0
37.61000,45.0
37.62200,42.0
37.63400,65.0
37.64600,43.0
37.65800,48.0
37.67000,59.0
37.68200,46.0
37.69400,53.0
37.70600,59.0
37.71800,68.0
37.73000,64.0
37.74200,65.0
37.75400,74.0
37.76600,53.0
37.77800,70.0
37.79000,60.0
37.80200,75.0
37.81400,70.0
37.82600,74.0
37.83800,84.0
37.85000,112.0
37.86200,100.0
37.87400,99.0
37.88600,108.0
37.89800,127.0
37.91000,125.0
37.92200,137.0
37.93400,124.0
37.94600,165.0
37.95800,158.0
37.97000,197.0
37.98200,194.0
37.99400,199.0
38.00600,194.0
38.01800,218.0
38.03000,223.0
38.04200,233.0
38.05400,261.0
38.06600,267.0
38.07800,281.0
38.09000,275.0
38.10200,293.0
38.11400,348.0
38.12600,395.0
38.13800,340.0
38.15000,331.0
38.16200,372.0
38.17400,436.0
38.18600,387.0
38.19800,380.0
38.21000,405.0
38.22200,405.0
38.23400,438.0
38.24600,448.0
38.25800,470.0
38.27000,477.0
38.28200,468.0
38.29400,427.0
38.30600,475.0
38.31800,448.0
38.33000,438.0
38.34200,402.0
38.35400,467.0
38.36600,408.0
38.37800,438.0
38.39000,459.0
38.40200,458.0
38.41400,424.0
38.42600,439.0
38.43800,438.0
38.45000,433.0
38.46200,404.0
38.47400,445.0
38.48600,421.0
38.49800,403.0
38.51000,415.0
38.52200,403.0
38.53400,393.0
38.54600,417.0
38.55800,434.0
38.57000,452.0
38.58200,460.0
38.59400,442.0
38.60600,469.0
38.61800,448.0
38.63000,465.0
38.64200,472.0
38.65400,495.0
38.66600,477.0
38.67800,489.0
38.69000,461.0
38.70200,471.0
38.71400,505.0
38.72600,498.0
38.73800,456.0
38.75000,491.0
38.76200,513.0
38.77400,427.0
38.78600,446.0
38.79800,449.0
38.81000,481.0
38.82200,439.0
38.83400,446.0
38.84600,425.0
38.85800,458.0
38.87000,410.0
38.88200,401.0
38.89400,370.0
38.90600,378.0
38.91800,364.0
38.93000,334.0
38.94200,345.0
38.95400,320.0
38.96600,341.0
38.97800,310.0
38.99000,290.0
39.00200,322.0
39.01400,299.0
39.02600,297.0
39.03800,263.0
39.05000,273.0
39.06200,241.0
39.07400,256.0
39.08600,209.0
39.09800,200.0
39.11000,247.0
39.12200,227.0
39.13400,217.0
39.14600,231.0
39.15800,218.0
39.17000,190.0
39.18200,206.0
39.19400,155.0
39.20600,185.0
39.21800,196.0
39.23000,175.0
39.24200,184.0
39.25400,181.0
39.26600,175.0
39.27800,173.0
39.29000,183.0
39.30200,179.0
39.31400,198.0
39.32600,140.0
39.33800,158.0
39.35000,171.0
39.36200,155.0
39.37400,166.0
39.38600,180.0
39.39800,187.0
39.41000,169.0
39.42200,169.0
39.43400,185.0
39.44600,181.0
39.45800,170.0
39.47000,167.0
39.48200,178.0
39.49400,186.0
39.50600,201.0
39.51800,209.0
39.53000,213.0
39.54200,224.0
39.55400,272.0
39.56600,257.0
39.57800,256.0
39.59000,266.0
39.60200,302.0
39.61400,320.0
39.62600,308.0
39.63800,337.0
39.65000,380.0
39.66200,352.0
39.67400,393.0
39.68600,409.0
39.69800,449.0
39.71000,471.0
39.72200,541.0
39.73400,533.0
39.74600,525.0
39.75800,585.0
39.77000,627.0
39.78200,625.0
39.79400,705.0
39.80600,701.0
39.81800,777.0
39.83000,782.0
39.84200,789.0
39.85400,860.0
39.86600,922.0
39.87800,924.0
39.89000,989.0
39.90200,930.0
39.91400,1002.0
39.92600,1044.0
39.93800,1125.0
39.95000,1135.0
39.96200,1110.0
39.97400,1125.0
39.98600,1176.0
39.99800,1156.0
40.01000,1118.0
40.02200,1217.0
40.03400,1209.0
40.04600,1173.0
40.05800,1164.0
40.07000,1090.0
40.08200,1151.0
40.09400,1117.0
40.10600,1099.0
40.11800,1112.0
40.13000,1062.0
40.14200,1088.0
40.15400,987.0
40.16600,952.0
40.17800,950.0
40.19000,875.0
40.20200,812.0
40.21400,846.0
40.22600,806.0
40.23800,741.0
40.25000,769.0
40.26200,707.0
40.27400,725.0
40.28600,686.0
40.29800,611.0
40.31000,572.0
40.32200,558.0
40.33400,528.0
40.34600,552.0
40.35800,500.0
40.37000,443.0
40.38200,410.0
40.39400,414.0
40.40600,385.0
40.41800,331.0
40.43000,368.0
40.44200,324.0
40.45400,269.0
40.46600,310.0
40.47800,319.0
40.49000,254.0
40.50200,241.0
40.51400,225.0
40.52600,219.0
40.53800,205.0
40.55000,200.0
40.56200,187.0
40.57400,183.0
40.58600,145.0
40.59800,168.0
40.61000,184.0
40.62200,138.0
40.63400,116.0
40.64600,121.0
40.65800,133.0
40.67000,133.0
40.68200,123.0
40.69400,105.0
40.70600,108.0
40.71800,128.0
40.73000,78.0
40.74200,77.0
40.75400,82.0
40.76600,79.0
40.77800,86.0
40.79000,60.0
40.80200,64.0
40.81400,76.0
40.82600,78.0
40.83800,56.0
40.85000,57.0
40.86200,65.0
40.87400,68.0
40.88600,55.0
40.89800,79.0
40.91000,40.0
40.92200,49.0
40.93400,44.0
40.94600,59.0
40.95800,58.0
40.97000,48.0
40.98200,46.0
40.99400,52.0
41.00600,46.0
41.01800,38.0
41.03000,50.0
41.04200,45.0
41.05400,49.0
41.06600,46.0
41.07800,44.0
41.09000,41.0
41.10200,41.0
41.11400,38.0
41.12600,38.0
41.13800,33.0
41.15000,45.0
41.16200,48.0
41.17400,34.0
41.18600,44.0
41.19800,40.0
41.21000,42.0
41.22200,43.0
41.23400,38.0
41.24600,33.0
41.25800,38.0
41.27000,39.0
41.28200,49.0
41.29400,28.0
41.30600,40.0
41.31800,32.0
41.33000,44.0
41.34200,36.0
41.35400,37.0
41.36600,34.0
41.37800,34.0
41.39000,32.0
41.40200,52.0
41.41400,32.0
41.42600,36.0
41.43800,34.0
41.45000,40.0
41.46200,41.0
41.47400,33.0
41.48600,33.0
41.49800,27.0
41.51000,32.0
41.52200,32.0
41.53400,40.0
41.54600,37.0
41.55800,33.0
41.57000,28.0
41.58200,36.0
41.59400,37.0
41.60600,34.0
41.61800,25.0
41.63000,36.0
41.64200,35.0
41.65400,32.0
41.66600,40.0
41.67800,34.0
41.69000,34.0
41.70200,37.0
41.71400,34.0
41.72600,34.0
41.73800,47.0
41.75000,35.0
41.76200,24.0
41.77400,34.0
41.78600,40.0
41.79800,35.0
41.81000,31.0
41.82200,33.0
41.83400,40.0
41.84600,44.0
41.85800,35.0
41.87000,22.0
41.88200,40.0
41.89400,30.0
41.90600,39.0
41.91800,43.0
41.93000,48.0
41.94200,36.0
41.95400,30.0
41.96600,35.0
41.97800,23.0
41.99000,45.0
42.00200,48.0
42.01400,29.0
42.02600,29.0
42.03800,37.0
42.05000,47.0
42.06200,36.0
42.07400,38.0
42.08600,40.0
42.09800,33.0
42.11000,31.0
42.12200,31.0
42.13400,39.0
42.14600,39.0
42.15800,41.0
42.17000,29.0
42.18200,46.0
42.19400,44.0
42.20600,33.0
42.21800,39.0
42.23000,37.0
42.24200,38.0
42.25400,38.0
42.26600,29.0
42.27800,46.0
42.29000,29.0
42.30200,28.0
42.31400,30.0
42.32600,34.0
42.33800,31.0
42.35000,35.0
42.36200,29.0
42.37400,41.0
42.38600,39.0
42.39800,44.0
42.41000,43.0
42.42200,32.0
42.43400,31.0
42.44600,37.0
42.45800,36.0
42.47000,33.0
42.48200,35.0
42.49400,28.0
42.50600,34.0
42.51800,31.0
42.53000,20.0
42.54200,20.0
42.55400,30.0
42.56600,36.0
42.57800,30.0
42.59000,31.0
42.60200,36.0
42.61400,26.0
42.62600,30.0
42.63800,43.0
42.65000,32.0
42.66200,33.0
42.67400,34.0
42.68600,34.0
42.69800,34.0
42.71000,35.0
42.72200,25.0
42.73400,15.0
42.74600,27.0
42.75800,24.0
42.77000,39.0
42.78200,30.0
42.79400,28.0
42.80600,45.0
42.81800,39.0
42.83000,30.0
42.84200,36.0
42.85400,35.0
42.86600,41.0
42.87800,34.0
42.89000,35.0
42.90200,24.0
42.91400,34.0
42.92600,33.0
42.93800,32.0
42.95000,28.0
42.96200,27.0
42.97400,26.0
42.98600,28.0
42.99800,34.0
43.01000,36.0
43.02200,26.0
43.03400,29.0
43.04600,24.0
43.05800,24.0
43.07000,34.0
43.08200,24.0
43.09400,30.0
43.10600,37.0
43.11800,24.0
43.13000,27.0
43.14200,31.0
43.15400,32.0
43.16600,25.0
43.17800,28.0
43.19000,27.0
43.20200,24.0
43.21400,24.0
43.22600,35.0
43.23800,27.0
43.25000,29.0
43.26200,21.0
43.27400,33.0
43.28600,22.0
43.29800,30.0
43.31000,29.0
43.32200,28.0
43.33400,29.0
43.34600,21.0
43.35800,32.0
43.37000,24.0
43.38200,17.0
43.39400,22.0
43.40600,32.0
43.41800,24.0
43.43000,30.0
43.44200,32.0
43.45400,27.0
43.46600,31.0
43.47800,21.0
43.49000,21.0
43.50200,29.0
43.51400,20.0
43.52600,35.0
43.53800,19.0
43.55000,26.0
43.56200,19.0
43.57400,23.0
43.58600,28.0
43.59800,23.0
43.61000,24.0
43.62200,29.0
43.63400,28.0
43.64600,21.0
43.65800,20.0
43.67000,14.0
43.68200,23.0
43.69400,23.0
43.70600,25.0
43.71800,32.0
43.73000,30.0
43.74200,26.0
43.75400,21.0
43.76600,17.0
43.77800,24.0
43.79000,23.0
43.80200,31.0
43.81400,15.0
43.82600,28.0
43.83800,31.0
43.85000,32.0
43.86200,21.0
43.87400,29.0
43.88600,30.0
43.89800,24.0
43.91000,16.0
43.92200,32.0
43.93400,22.0
43.94600,18.0
43.95800,14.0
43.97000,18.0
43.98200,27.0
43.99400,24.0
44.00600,20.0
44.01800,33.0
44.03000,28.0
44.04200,25.0
44.05400,28.0
44.06600,21.0
44.07800,29.0
44.09000,22.0
44.10200,25.0
44.11400,26.0
44.12600,25.0
44.13800,29.0
44.15000,17.0
44.16200,20.0
44.17400,30.0
44.18600,19.0
44.19800,19.0
44.21000,22.0
44.22200,18.0
44.23400,16.0
44.24600,25.0
44.25800,18.0
44.27000,11.0
44.28200,22.0
44.29400,22.0
44.30600,27.0
44.31800,22.0
44.33000,22.0
44.34200,18.0
44.35400,18.0
44.36600,24.0
44.37800,25.0
44.39000,29.0
44.40200,22.0
44.41400,28.0
44.42600,23.0
44.43800,19.0
44.45000,23.0
44.46200,21.0
44.47400,26.0
44.48600,24.0
44.49800,34.0
44.51000,26.0
44.52200,18.0
44.53400,33.0
44.54600,21.0
44.55800,22.0
44.57000,20.0
44.58200,13.0
44.59400,18.0
44.60600,22.0
44.61800,25.0
44.63000,29.0
44.64200,23.0
44.65400,27.0
44.66600,23.0
44.67800,28.0
44.69000,23.0
44.70200,14.0
44.71400,17.0
44.72600,24.0
44.73800,27.0
44.75000,31.0
44.76200,20.0
44.77400,20.0
44.78600,26.0
44.79800,22.0
44.81000,20.0
44.82200,24.0
44.83400,20.0
44.84600,23.0
44.85800,23.0
44.87000,21.0
44.88200,30.0
44.89400,21.0
44.90600,14.0
44.91800,22.0
44.93000,23.0
44.94200,21.0
44.95400,23.0
44.96600,28.0
44.97800,14.0
44.99000,25.0
45.00200,18.0
45.01400,31.0
45.02600,17.0
45.03800,23.0
45.05000,21.0
45.06200,22.0
45.07400,30.0
45.08600,22.0
45.09800,24.0
45.11000,38.0
45.12200,22.0
45.13400,24.0
45.14600,26.0
45.15800,25.0
45.17000,32.0
45.18200,29.0
45.19400,23.0
45.20600,19.0
45.21800,14.0
45.23000,27.0
45.24200,28.0
45.25400,32.0
45.26600,15.0
45.27800,21.0
45.29000,26.0
45.30200,22.0
45.31400,33.0
45.32600,32.0
45.33800,21.0
45.35000,31.0
45.36200,21.0
45.37400,29.0
45.38600,14.0
45.39800,17.0
45.41000,30.0
45.42200,17.0
45.43400,23.0
45.44600,23.0
45.45800,18.0
45.47000,27.0
45.48200,23.0
45.49400,32.0
45.50600,20.0
45.51800,21.0
45.53000,25.0
45.54200,26.0
45.55400,28.0
45.56600,25.0
45.57800,29.0
45.59000,12.0
45.60200,31.0
45.61400,20.0
45.62600,20.0
45.63800,23.0
45.65000,21.0
45.66200,29.0
45.67400,21.0
45.68600,19.0
45.69800,25.0
45.71000,24.0
45.72200,15.0
45.73400,17.0
45.74600,17.0
45.75800,31.0
45.77000,27.0
45.78200,22.0
45.79400,15.0
45.80600,30.0
45.81800,23.0
45.83000,17.0
45.84200,22.0
45.85400,18.0
45.86600,19.0
45.87800,19.0
45.89000,28.0
45.90200,26.0
45.91400,18.0
45.92600,20.0
45.93800,17.0
45.95000,22.0
45.96200,23.0
45.97400,27.0
45.98600,23.0
45.99800,28.0
46.01000,29.0
46.02200,25.0
46.03400,17.0
46.04600,20.0
46.05800,16.0
46.07000,21.0
46.08200,25.0
46.09400,22.0
46.10600,18.0
46.11800,14.0
46.13000,31.0
46.14200,22.0
46.15400,16.0
46.16600,27.0
46.17800,24.0
46.19000,22.0
46.20200,20.0
46.21400,24.0
46.22600,19.0
46.23800,18.0
46.25000,16.0
46.26200,20.0
46.27400,26.0
46.28600,21.0
46.29800,21.0
46.31000,22.0
46.32200,18.0
46.33400,24.0
46.34600,18.0
46.35800,31.0
46.37000,19.0
46.38200,22.0
46.39400,26.0
46.40600,27.0
46.41800,18.0
46.43000,29.0
46.44200,19.0
46.45400,22.0
46.46600,23.0
46.47800,13.0
46.49000,21.0
46.50200,21.0
46.51400,19.0
46.52600,20.0
46.53800,25.0
46.55000,21.0
46.56200,23.0
46.57400,22.0
46.58600,20.0
46.59800,26.0
46.61000,26.0
46.62200,20.0
46.63400,22.0
46.64600,22.0
46.65800,14.0
46.67000,24.0
46.68200,26.0
46.69400,27.0
46.70600,26.0
46.71800,23.0
46.73000,25.0
46.74200,24.0
46.75400,23.0
46.76600,15.0
46.77800,23.0
46.79000,35.0
46.80200,33.0
46.81400,19.0
46.82600,19.0
46.83800,23.0
46.85000,25.0
46.86200,17.0
46.87400,27.0
46.88600,27.0
46.89800,30.0
46.91000,25.0
46.92200,18.0
46.93400,24.0
46.94600,24.0
46.95800,21.0
46.97000,31.0
46.98200,21.0
46.99400,27.0
47.00600,17.0
47.01800,19.0
47.03000,14.0
47.04200,24.0
47.05400,23.0
47.06600,21.0
47.07800,12.0
47.09000,22.0
47.10200,20.0
47.11400,24.0
47.12600,21.0
47.13800,20.0
47.15000,21.0
47.16200,24.0
47.17400,19.0
47.18600,21.0
47.19800,23.0
47.21000,15.0
47.22200,21.0
47.23400,10.0
47.24600,16.0
47.25800,17.0
47.27000,19.0
47.28200,22.0
47.29400,18.0
47.30600,30.0
47.31800,22.0
47.33000,15.0
47.34200,25.0
47.35400,24.0
47.36600,29.0
47.37800,18.0
47.39000,25.0
47.40200,26.0
47.41400,22.0
47.42600,19.0
47.43800,21.0
47.45000,19.0
47.46200,23.0
47.47400,22.0
47.48600,27.0
47.49800,12.0
47.51000,25.0
47.52200,24.0
47.53400,15.0
47.54600,19.0
47.55800,18.0
47.57000,20.0
47.58200,30.0
47.59400,21.0
47.60600,20.0
47.61800,27.0
47.63000,23.0
47.64200,18.0
47.65400,14.0
47.66600,20.0
47.67800,22.0
47.69000,26.0
47.70200,21.0
47.71400,29.0
47.72600,27.0
47.73800,24.0
47.75000,19.0
47.76200,28.0
47.77400,18.0
47.78600,23.0
47.79800,19.0
47.81000,26.0
47.82200,17.0
47.83400,21.0
47.84600,17.0
47.85800,22.0
47.87000,23.0
47.88200,19.0
47.89400,19.0
47.90600,16.0
47.91800,17.0
47.93000,20.0
47.94200,21.0
47.95400,27.0
47.96600,20.0
47.97800,19.0
47.99000,17.0
48.00200,19.0
48.01400,20.0
48.02600,16.0
48.03800,15.0
48.05000,18.0
48.06200,14.0
48.07400,18.0
48.08600,20.0
48.09800,16.0
48.11000,23.0
48.12200,15.0
48.13400,25.0
48.14600,25.0
48.15800,12.0
48.17000,23.0
48.18200,11.0
48.19400,20.0
48.20600,26.0
48.21800,15.0
48.23000,21.0
48.24200,25.0
48.25400,13.0
48.26600,22.0
48.27800,22.0
48.29000,19.0
48.30200,18.0
48.31400,15.0
48.32600,15.0
48.33800,24.0
48.35000,25.0
48.36200,22.0
48.37400,21.0
48.38600,17.0
48.39800,25.0
48.41000,23.0
48.42200,23.0
48.43400,21.0
48.44600,20.0
48.45800,16.0
48.47000,19.0
48.48200,17.0
48.49400,17.0
48.50600,14.0
48.51800,19.0
48.53000,18.0
48.54200,19.0
48.55400,15.0
48.56600,21.0
48.57800,20.0
48.59000,18.0
48.60200,10.0
48.61400,26.0
48.62600,16.0
48.63800,14.0
48.65000,20.0
48.66200,13.0
48.67400,31.0
48.68600,28.0
48.69800,20.0
48.71000,11.0
48.72200,17.0
48.73400,16.0
48.74600,11.0
48.75800,17.0
48.77000,18.0
48.78200,14.0
48.79400,18.0
48.80600,27.0
48.81800,18.0
48.83000,17.0
48.84200,7.0
48.85400,14.0
48.86600,14.0
48.87800,25.0
48.89000,18.0
48.90200,20.0
48.91400,17.0
48.92600,20.0
48.93800,27.0
48.95000,14.0
48.96200,25.0
48.97400,19.0
48.98600,25.0
48.99800,17.0
49.01000,22.0
49.02200,16.0
49.03400,18.0
49.04600,19.0
49.05800,15.0
49.07000,26.0
49.08200,15.0
49.09400,21.0
49.10600,17.0
49.11800,15.0
49.13000,19.0
49.14200,28.0
49.15400,17.0
49.16600,15.0
49.17800,15.0
49.19000,19.0
49.20200,21.0
49.21400,24.0
49.22600,25.0
49.23800,20.0
49.25000,13.0
49.26200,18.0
49.27400,19.0
49.28600,19.0
49.29800,15.0
49.31000,20.0
49.32200,20.0
49.33400,24.0
49.34600,20.0
49.35800,22.0
49.37000,21.0
49.38200,26.0
49.39400,22.0
49.40600,19.0
49.41800,21.0
49.43000,22.0
49.44200,6.0
49.45400,18.0
49.46600,20.0
49.47800,19.0
49.49000,21.0
49.50200,21.0
49.51400,16.0
49.52600,18.0
49.53800,18.0
49.55000,15.0
49.56200,19.0
49.57400,16.0
49.58600,13.0
49.59800,14.0
49.61000,25.0
49.62200,21.0
49.63400,18.0
49.64600,16.0
49.65800,21.0
49.67000,17.0
49.68200,20.0
49.69400,18.0
49.70600,23.0
49.71800,17.0
49.73000,15.0
49.74200,21.0
49.75400,18.0
49.76600,23.0
49.77800,16.0
49.79000,17.0
49.80200,17.0
49.81400,21.0
49.82600,14.0
49.83800,25.0
49.85000,20.0
49.86200,25.0
49.87400,13.0
49.88600,12.0
49.89800,15.0
49.91000,26.0
49.92200,14.0
49.93400,19.0
49.94600,11.0
49.95800,21.0
49.97000,20.0
49.98200,18.0
49.99400,19.0
50.00600,19.0
50.01800,32.0
50.03000,19.0
50.04200,22.0
50.05400,26.0
50.06600,17.0
50.07800,13.0
50.09000,20.0
50.10200,19.0
50.11400,26.0
50.12600,21.0
50.13800,18.0
50.15000,27.0
50.16200,30.0
50.17400,21.0
50.18600,22.0
50.19800,17.0
50.21000,23.0
50.22200,17.0
50.23400,18.0
50.24600,25.0
50.25800,17.0
50.27000,20.0
50.28200,20.0
50.29400,17.0
50.30600,23.0
50.31800,16.0
50.33000,19.0
50.34200,17.0
50.35400,20.0
50.36600,30.0
50.37800,22.0
50.39000,24.0
50.40200,17.0
50.41400,23.0
50.42600,24.0
50.43800,25.0
50.45000,19.0
50.46200,26.0
50.47400,26.0
50.48600,17.0
50.49800,25.0
50.51000,24.0
50.52200,21.0
50.53400,19.0
50.54600,19.0
50.55800,22.0
50.57000,26.0
50.58200,17.0
50.59400,28.0
50.60600,15.0
50.61800,17.0
50.63000,16.0
50.64200,26.0
50.65400,15.0
50.66600,18.0
50.67800,21.0
50.69000,26.0
50.70200,19.0
50.71400,21.0
50.72600,21.0
50.73800,20.0
50.75000,21.0
50.76200,28.0
50.77400,26.0
50.78600,12.0
50.79800,20.0
50.81000,25.0
50.82200,13.0
50.83400,16.0
50.84600,13.0
50.85800,28.0
50.87000,20.0
50.88200,23.0
50.89400,17.0
50.90600,20.0
50.91800,14.0
50.93000,20.0
50.94200,27.0
50.95400,23.0
50.96600,27.0
50.97800,27.0
50.99000,19.0
51.00200,28.0
51.01400,17.0
51.02600,16.0
51.03800,17.0
51.05000,33.0
51.06200,23.0
51.07400,26.0
51.08600,17.0
51.09800,15.0
51.11000,20.0
51.12200,32.0
51.13400,20.0
51.14600,20.0
51.15800,22.0
51.17000,15.0
51.18200,15.0
51.19400,19.0
51.20600,13.0
51.21800,16.0
51.23000,22.0
51.24200,34.0
51.25400,22.0
51.26600,17.0
51.27800,25.0
51.29000,20.0
51.30200,20.0
51.31400,18.0
51.32600,17.0
51.33800,26.0
51.35000,22.0
51.36200,17.0
51.37400,17.0
51.38600,18.0
51.39800,14.0
51.41000,24.0
51.42200,22.0
51.43400,16.0
51.44600,27.0
51.45800,17.0
51.47000,25.0
51.48200,11.0
51.49400,14.0
51.50600,16.0
51.51800,15.0
51.53000,19.0
51.54200,21.0
51.55400,22.0
51.56600,20.0
51.57800,15.0
51.59000,20.0
51.60200,16.0
51.61400,24.0
51.62600,15.0
51.63800,22.0
51.65000,19.0
51.66200,16.0
51.67400,19.0
51.68600,19.0
51.69800,19.0
51.71000,24.0
51.72200,24.0
51.73400,12.0
51.74600,24.0
51.75800,22.0
51.77000,17.0
51.78200,26.0
51.79400,20.0
51.80600,25.0
51.81800,19.0
51.83000,29.0
51.84200,16.0
51.85400,21.0
51.86600,21.0
51.87800,11.0
51.89000,25.0
51.90200,15.0
51.91400,10.0
51.92600,19.0
51.93800,18.0
51.95000,16.0
51.96200,21.0
51.97400,18.0
51.98600,21.0
51.99800,18.0
52.01000,15.0
52.02200,11.0
52.03400,18.0
52.04600,21.0
52.05800,19.0
52.07000,21.0
52.08200,26.0
52.09400,31.0
52.10600,17.0
52.11800,14.0
52.13000,18.0
52.14200,25.0
52.15400,36.0
52.16600,34.0
52.17800,22.0
52.19000,26.0
52.20200,20.0
52.21400,27.0
52.22600,18.0
52.23800,38.0
52.25000,38.0
52.26200,37.0
52.27400,31.0
52.28600,29.0
52.29800,21.0
52.31000,29.0
52.32200,30.0
52.33400,35.0
52.34600,36.0
52.35800,38.0
52.37000,29.0
52.38200,39.0
52.39400,43.0
52.40600,41.0
52.41800,31.0
52.43000,51.0
52.44200,37.0
52.45400,59.0
52.46600,44.0
52.47800,62.0
52.49000,63.0
52.50200,69.0
52.51400,66.0
52.52600,72.0
52.53800,65.0
52.55000,68.0
52.56200,78.0
52.57400,71.0
52.58600,95.0
52.59800,80.0
52.61000,95.0
52.62200,95.0
52.63400,108.0
52.64600,111.0
52.65800,97.0
52.67000,103.0
52.68200,89.0
52.69400,107.0
52.70600,101.0
52.71800,122.0
52.73000,98.0
52.74200,102.0
52.75400,132.0
52.76600,128.0
52.77800,123.0
52.79000,131.0
52.80200,131.0
52.81400,124.0
52.82600,128.0
52.83800,128.0
52.85000,136.0
52.86200,132.0
52.87400,123.0
52.88600,132.0
52.89800,119.0
52.91000,130.0
52.92200,135.0
52.93400,126.0
52.94600,107.0
52.95800,110.0
52.97000,122.0
52.98200,112.0
52.99400,126.0
53.00600,105.0
53.01800,98.0
53.03000,105.0
53.04200,102.0
53.05400,100.0
53.06600,96.0
53.07800,114.0
53.09000,93.0
53.10200,96.0
53.11400,96.0
53.12600,75.0
53.13800,82.0
53.15000,83.0
53.16200,81.0
53.17400,89.0
53.18600,59.0
53.19800,80.0
53.21000,70.0
53.22200,69.0
53.23400,81.0
53.24600,69.0
53.25800,71.0
53.27000,56.0
53.28200,69.0
53.29400,52.0
53.30600,46.0
53.31800,52.0
53.33000,49.0
53.34200,59.0
53.35400,49.0
53.36600,62.0
53.37800,49.0
53.39000,43.0
53.40200,45.0
53.41400,46.0
53.42600,35.0
53.43800,47.0
53.45000,58.0
53.46200,43.0
53.47400,35.0
53.48600,43.0
53.49800,47.0
53.51000,33.0
53.52200,48.0
53.53400,39.0
53.54600,33.0
53.55800,29.0
53.57000,31.0
53.58200,28.0
53.59400,31.0
53.60600,37.0
53.61800,41.0
53.63000,28.0
53.64200,36.0
53.65400,25.0
53.66600,35.0
53.67800,40.0
53.69000,20.0
53.70200,32.0
53.71400,26.0
53.72600,31.0
53.73800,26.0
53.75000,24.0
53.76200,23.0
53.77400,25.0
53.78600,25.0
53.79800,27.0
53.81000,28.0
53.82200,23.0
53.83400,31.0
53.84600,30.0
53.85800,33.0
53.87000,21.0
53.88200,24.0
53.89400,31.0
53.90600,40.0
53.91800,26.0
53.93000,30.0
53.94200,22.0
53.95400,28.0
53.96600,27.0
53.97800,38.0
53.99000,25.0
54.00200,27.0
54.01400,17.0
54.02600,28.0
54.03800,34.0
54.05000,28.0
54.06200,21.0
54.07400,21.0
54.08600,23.0
54.09800,31.0
54.11000,37.0
54.12200,21.0
54.13400,26.0
54.14600,29.0
54.15800,21.0
54.17000,21.0
54.18200,27.0
54.19400,26.0
54.20600,26.0
54.21800,22.0
54.23000,29.0
54.24200,27.0
54.25400,29.0
54.26600,26.0
54.27800,32.0
54.29000,23.0
54.30200,35.0
54.31400,28.0
54.32600,21.0
54.33800,25.0
54.35000,21.0
54.36200,19.0
54.37400,18.0
54.38600,24.0
54.39800,30.0
54.41000,24.0
54.42200,25.0
54.43400,25.0
54.44600,27.0
54.45800,22.0
54.47000,28.0
54.48200,29.0
54.49400,27.0
54.50600,20.0
54.51800,21.0
54.53000,30.0
54.54200,29.0
54.55400,26.0
54.56600,28.0
54.57800,34.0
54.59000,17.0
54.60200,25.0
54.61400,33.0
54.62600,29.0
54.63800,24.0
54.65000,35.0
54.66200,22.0
54.67400,37.0
54.68600,27.0
54.69800,25.0
54.71000,31.0
54.72200,18.0
54.73400,25.0
54.74600,27.0
54.75800,30.0
54.77000,31.0
54.78200,29.0
54.79400,25.0
54.80600,34.0
54.81800,30.0
54.83000,32.0
54.84200,27.0
54.85400,29.0
54.86600,30.0
54.87800,24.0
54.89000,27.0
54.90200,31.0
54.91400,33.0
54.92600,33.0
54.93800,20.0
54.95000,32.0
54.96200,38.0
54.97400,31.0
54.98600,22.0
54.99800,32.0
55.01000,28.0
55.02200,37.0
55.03400,27.0
55.04600,30.0
55.05800,42.0
55.07000,26.0
55.08200,42.0
55.09400,43.0
55.10600,27.0
55.11800,26.0
55.13000,39.0
55.14200,31.0
55.15400,39.0
55.16600,38.0
55.17800,31.0
55.19000,30.0
55.20200,39.0
55.21400,41.0
55.22600,29.0
55.23800,31.0
55.25000,47.0
55.26200,43.0
55.27400,37.0
55.28600,37.0
55.29800,39.0
55.31000,28.0
55.32200,40.0
55.33400,37.0
55.34600,42.0
55.35800,45.0
55.37000,40.0
55.38200,37.0
55.39400,40.0
55.40600,50.0
55.41800,36.0
55.43000,27.0
55.44200,49.0
55.45400,44.0
55.46600,53.0
55.47800,40.0
55.49000,41.0
55.50200,33.0
55.51400,46.0
55.52600,62.0
55.53800,52.0
55.55000,45.0
55.56200,43.0
55.57400,39.0
55.58600,45.0
55.59800,50.0
55.61000,52.0
55.62200,56.0
55.63400,60.0
55.64600,42.0
55.65800,62.0
55.67000,60.0
55.68200,56.0
55.69400,64.0
55.70600,55.0
55.71800,44.0
55.73000,37.0
55.74200,51.0
55.75400,56.0
55.76600,65.0
55.77800,52.0
55.79000,58.0
55.80200,57.0
55.81400,65.0
55.82600,56.0
55.83800,56.0
55.85000,50.0
55.86200,49.0
55.87400,67.0
55.88600,48.0
55.89800,63.0
55.91000,54.0
55.92200,49.0
55.93400,57.0
55.94600,54.0
55.95800,69.0
55.97000,58.0
55.98200,43.0
55.99400,52.0
56.00600,68.0
56.01800,60.0
56.03000,64.0
56.04200,53.0
56.05400,56.0
56.06600,76.0
56.07800,61.0
56.09000,49.0
56.10200,55.0
56.11400,64.0
56.12600,54.0
56.13800,68.0
56.15000,50.0
56.16200,63.0
56.17400,47.0
56.18600,66.0
56.19800,54.0
56.21000,37.0
56.22200,59.0
56.23400,61.0
56.24600,50.0
56.25800,49.0
56.27000,59.0
56.28200,41.0
56.29400,56.0
56.30600,41.0
56.31800,58.0
56.33000,40.0
56.34200,31.0
56.35400,39.0
56.36600,39.0
56.37800,56.0
56.39000,38.0
56.40200,36.0
56.41400,47.0
56.42600,45.0
56.43800,43.0
56.45000,37.0
56.46200,39.0
56.47400,34.0
56.48600,39.0
56.49800,43.0
56.51000,38.0
56.52200,26.0
56.53400,31.0
56.54600,34.0
56.55800,33.0
56.57000,41.0
56.58200,36.0
56.59400,37.0
56.60600,22.0
56.61800,25.0
56.63000,32.0
56.64200,38.0
56.65400,37.0
56.66600,40.0
56.67800,30.0
56.69000,40.0
56.70200,24.0
56.71400,27.0
56.72600,39.0
56.73800,31.0
56.75000,28.0
56.76200,32.0
56.77400,34.0
56.78600,23.0
56.79800,28.0
56.81000,29.0
56.82200,30.0
56.83400,27.0
56.84600,27.0
56.85800,15.0
56.87000,24.0
56.88200,22.0
56.89400,24.0
56.90600,26.0
56.91800,23.0
56.93000,28.0
56.94200,31.0
56.95400,21.0
56.96600,28.0
56.97800,23.0
56.99000,33.0
57.00200,20.0
57.01400,20.0
57.02600,25.0
57.03800,26.0
57.05000,17.0
57.06200,19.0
57.07400,20.0
57.08600,16.0
57.09800,34.0
57.11000,25.0
57.12200,25.0
57.13400,34.0
57.14600,24.0
57.15800,28.0
57.17000,19.0
57.18200,16.0
57.19400,26.0
57.20600,24.0
57.21800,22.0
57.23000,14.0
57.24200,21.0
57.25400,21.0
57.26600,26.0
57.27800,30.0
57.29000,20.0
57.30200,22.0
57.31400,14.0
57.32600,17.0
57.33800,18.0
57.35000,13.0
57.36200,16.0
57.37400,17.0
57.38600,22.0
57.39800,17.0
57.41000,23.0
57.42200,20.0
57.43400,19.0
57.44600,22.0
57.45800,20.0
57.47000,23.0
57.48200,24.0
57.49400,23.0
57.50600,26.0
57.51800,13.0
57.53000,18.0
57.54200,23.0
57.55400,13.0
57.56600,18.0
57.57800,22.0
57.59000,27.0
57.60200,25.0
57.61400,23.0
57.62600,26.0
57.63800,22.0
57.65000,16.0
57.66200,17.0
57.67400,27.0
57.68600,20.0
57.69800,23.0
57.71000,24.0
57.72200,21.0
57.73400,21.0
57.74600,25.0
57.75800,20.0
57.77000,25.0
57.78200,23.0
57.79400,26.0
57.80600,24.0
57.81800,14.0
57.83000,23.0
57.84200,25.0
57.85400,18.0
57.86600,28.0
57.87800,13.0
57.89000,13.0
57.90200,16.0
57.91400,25.0
57.92600,14.0
57.93800,17.0
57.95000,19.0
57.96200,13.0
57.97400,25.0
57.98600,18.0
57.99800,19.0
58.01000,22.0
58.02200,15.0
58.03400,15.0
58.04600,21.0
58.05800,19.0
58.07000,19.0
58.08200,23.0
58.09400,17.0
58.10600,16.0
58.11800,20.0
58.13000,15.0
58.14200,21.0
58.15400,15.0
58.16600,18.0
58.17800,17.0
58.19000,14.0
58.20200,18.0
58.21400,21.0
58.22600,18.0
58.23800,20.0
58.25000,15.0
58.26200,19.0
58.27400,16.0
58.28600,16.0
58.29800,20.0
58.31000,17.0
58.32200,18.0
58.33400,24.0
58.34600,20.0
58.35800,21.0
58.37000,16.0
58.38200,19.0
58.39400,12.0
58.40600,17.0
58.41800,15.0
58.43000,14.0
58.44200,20.0
58.45400,17.0
58.46600,26.0
58.47800,23.0
58.49000,14.0
58.50200,6.0
58.51400,24.0
58.52600,17.0
58.53800,20.0
58.55000,11.0
58.56200,18.0
58.57400,18.0
58.58600,16.0
58.59800,18.0
58.61000,25.0
58.62200,19.0
58.63400,12.0
58.64600,14.0
58.65800,18.0
58.67000,20.0
58.68200,22.0
58.69400,18.0
58.70600,22.0
58.71800,23.0
58.73000,19.0
58.74200,21.0
58.75400,26.0
58.76600,13.0
58.77800,20.0
58.79000,20.0
58.80200,24.0
58.81400,25.0
58.82600,17.0
58.83800,13.0
58.85000,22.0
58.86200,17.0
58.87400,22.0
58.88600,15.0
58.89800,12.0
58.91000,26.0
58.92200,21.0
58.93400,14.0
58.94600,20.0
58.95800,21.0
58.97000,10.0
58.98200,20.0
58.99400,16.0
59.00600,19.0
59.01800,26.0
59.03000,16.0
59.04200,18.0
59.05400,13.0
59.06600,20.0
59.07800,17.0
59.09000,16.0
59.10200,22.0
59.11400,29.0
59.12600,17.0
59.13800,11.0
59.15000,12.0
59.16200,20.0
59.17400,23.0
59.18600,17.0
59.19800,16.0
59.21000,17.0
59.22200,19.0
59.23400,17.0
59.24600,23.0
59.25800,16.0
59.27000,23.0
59.28200,16.0
59.29400,22.0
59.30600,20.0
59.31800,15.0
59.33000,25.0
59.34200,18.0
59.35400,19.0
59.36600,22.0
59.37800,21.0
59.39000,19.0
59.40200,18.0
59.41400,18.0
59.42600,14.0
59.43800,12.0
59.45000,9.0
59.46200,12.0
59.47400,20.0
59.48600,19.0
59.49800,14.0
59.51000,12.0
59.52200,25.0
59.53400,13.0
59.54600,21.0
59.55800,21.0
59.57000,17.0
59.58200,24.0
59.59400,15.0
59.60600,17.0
59.61800,18.0
59.63000,14.0
59.64200,25.0
59.65400,20.0
59.66600,11.0
59.67800,19.0
59.69000,18.0
59.70200,11.0
59.71400,15.0
59.72600,11.0
59.73800,10.0
59.75000,17.0
59.76200,21.0
59.77400,14.0
59.78600,14.0
59.79800,17.0
59.81000,10.0
59.82200,16.0
59.83400,13.0
59.84600,17.0
59.85800,14.0
59.87000,12.0
59.88200,20.0
59.89400,14.0
59.90600,22.0
59.91800,21.0
59.93000,14.0
59.94200,19.0
59.95400,15.0
59.96600,10.0
59.97800,16.0
59.99000,18.0
60.00200,14.0
60.01400,15.0
60.02600,20.0
60.03800,19.0
60.05000,19.0
60.06200,14.0
60.07400,14.0
60.08600,18.0
60.09800,12.0
60.11000,14.0
60.12200,24.0
60.13400,19.0
60.14600,17.0
60.15800,15.0
60.17000,15.0
60.18200,13.0
60.19400,20.0
60.20600,18.0
60.21800,17.0
60.23000,16.0
60.24200,27.0
60.25400,15.0
60.26600,11.0
60.27800,12.0
60.29000,20.0
60.30200,20.0
60.31400,14.0
60.32600,18.0
60.33800,22.0
60.35000,14.0
60.36200,11.0
60.37400,17.0
60.38600,15.0
60.39800,16.0
60.41000,13.0
60.42200,14.0
60.43400,15.0
60.44600,22.0
60.45800,17.0
60.47000,11.0
60.48200,16.0
60.49400,8.0
60.50600,16.0
60.51800,14.0
60.53000,17.0
60.54200,13.0
60.55400,27.0
60.56600,21.0
60.57800,19.0
60.59000,13.0
60.60200,15.0
60.61400,12.0
60.62600,20.0
60.63800,17.0
60.65000,19.0
60.66200,17.0
60.67400,16.0
60.68600,15.0
60.69800,19.0
60.71000,19.0
60.72200,18.0
60.73400,15.0
60.74600,21.0
60.75800,15.0
60.77000,23.0
60.78200,10.0
60.79400,20.0
60.80600,16.0
60.81800,29.0
60.83000,26.0
60.84200,20.0
60.85400,10.0
60.86600,21.0
60.87800,21.0
60.89000,22.0
60.90200,24.0
60.91400,26.0
60.92600,16.0
60.93800,29.0
60.95000,18.0
60.96200,27.0
60.97400,17.0
60.98600,21.0
60.99800,15.0
61.01000,20.0
61.02200,11.0
61.03400,16.0
61.04600,19.0
61.05800,25.0
61.07000,20.0
61.08200,19.0
61.09400,24.0
61.10600,14.0
61.11800,16.0
61.13000,24.0
61.14200,21.0
61.15400,19.0
61.16600,23.0
61.17800,25.0
61.19000,20.0
61.20200,14.0
61.21400,21.0
61.22600,19.0
61.23800,16.0
61.25000,17.0
61.26200,29.0
61.27400,20.0
61.28600,25.0
61.29800,26.0
61.31000,25.0
61.32200,26.0
61.33400,14.0
61.34600,27.0
61.35800,23.0
61.37000,18.0
61.38200,26.0
61.39400,34.0
61.40600,16.0
61.41800,31.0
61.43000,27.0
61.44200,13.0
61.45400,25.0
61.46600,33.0
61.47800,27.0
61.49000,27.0
61.50200,31.0
61.51400,23.0
61.52600,30.0
61.53800,23.0
61.55000,33.0
61.56200,35.0
61.57400,29.0
61.58600,28.0
61.59800,25.0
61.61000,32.0
61.62200,35.0
61.63400,32.0
61.64600,29.0
61.65800,38.0
61.67000,34.0
61.68200,41.0
61.69400,32.0
61.70600,34.0
61.71800,25.0
61.73000,24.0
61.74200,42.0
61.75400,46.0
61.76600,33.0
61.77800,37.0
61.79000,31.0
61.80200,31.0
61.81400,51.0
61.82600,28.0
61.83800,30.0
61.85000,36.0
61.86200,37.0
61.87400,30.0
61.88600,43.0
61.89800,42.0
61.91000,38.0
61.92200,51.0
61.93400,42.0
61.94600,46.0
61.95800,51.0
61.97000,49.0
61.98200,45.0
61.99400,50.0
62.00600,48.0
62.01800,51.0
62.03000,40.0
62.04200,45.0
62.05400,44.0
62.06600,42.0
62.07800,46.0
62.09000,51.0
62.10200,55.0
62.11400,49.0
62.12600,67.0
62.13800,57.0
62.15000,68.0
62.16200,56.0
62.17400,60.0
62.18600,53.0
62.19800,48.0
62.21000,59.0
62.22200,56.0
62.23400,58.0
62.24600,54.0
62.25800,77.0
62.27000,57.0
62.28200,75.0
62.29400,75.0
62.30600,68.0
62.31800,67.0
62.33000,70.0
62.34200,91.0
62.35400,63.0
62.36600,80.0
62.37800,75.0
62.39000,88.0
62.40200,67.0
62.41400,87.0
62.42600,88.0
62.43800,84.0
62.45000,90.0
62.46200,96.0
62.47400,93.0
62.48600,105.0
62.49800,93.0
62.51000,100.0
62.52200,78.0
62.53400,96.0
62.54600,96.0
62.55800,111.0
62.57000,92.0
62.58200,97.0
62.59400,113.0
62.60600,104.0
62.61800,114.0
62.63000,115.0
62.64200,89.0
62.65400,114.0
62.66600,107.0
62.67800,137.0
62.69000,111.0
62.70200,109.0
62.71400,100.0
62.72600,131.0
62.73800,125.0
62.75000,131.0
62.76200,130.0
62.77400,116.0
62.78600,142.0
62.79800,116.0
62.81000,127.0
62.82200,135.0
62.83400,130.0
62.84600,132.0
62.85800,143.0
62.87000,130.0
62.88200,137.0
62.89400,134.0
62.90600,124.0
62.91800,141.0
62.93000,154.0
62.94200,120.0
62.95400,130.0
62.96600,113.0
62.97800,114.0
62.99000,134.0
63.00200,117.0
63.01400,113.0
63.02600,145.0
63.03800,116.0
63.05000,113.0
63.06200,137.0
63.07400,106.0
63.08600,88.0
63.09800,110.0
63.11000,121.0
63.12200,112.0
63.13400,122.0
63.14600,100.0
63.15800,104.0
63.17000,98.0
63.18200,121.0
63.19400,117.0
63.20600,101.0
63.21800,113.0
63.23000,105.0
63.24200,86.0
63.25400,94.0
63.26600,80.0
63.27800,99.0
63.29000,101.0
63.30200,94.0
63.31400,102.0
63.32600,90.0
63.33800,84.0
63.35000,86.0
63.36200,94.0
63.37400,75.0
63.38600,87.0
63.39800,66.0
63.41000,71.0
63.42200,80.0
63.43400,80.0
63.44600,71.0
63.45800,80.0
63.47000,80.0
63.48200,70.0
63.49400,68.0
63.50600,71.0
63.51800,72.0
63.53000,69.0
63.54200,77.0
63.55400,57.0
63.56600,53.0
63.57800,71.0
63.59000,53.0
63.60200,63.0
63.61400,55.0
63.62600,60.0
63.63800,50.0
63.65000,55.0
63.66200,47.0
63.67400,60.0
63.68600,54.0
63.69800,54.0
63.71000,64.0
63.72200,33.0
63.73400,56.0
63.74600,51.0
63.75800,26.0
63.77000,37.0
63.78200,34.0
63.79400,51.0
63.80600,45.0
63.81800,35.0
63.83000,46.0
63.84200,36.0
63.85400,33.0
63.86600,36.0
63.87800,37.0
63.89000,43.0
63.90200,39.0
63.91400,34.0
63.92600,32.0
63.93800,34.0
63.95000,39.0
63.96200,32.0
63.97400,24.0
63.98600,29.0
63.99800,27.0
64.01000,36.0
64.02200,21.0
64.03400,26.0
64.04600,29.0
64.05800,27.0
64.07000,31.0
64.08200,27.0
64.09400,30.0
64.10600,25.0
64.11800,20.0
64.13000,29.0
64.14200,17.0
64.15400,25.0
64.16600,34.0
64.17800,28.0
64.19000,28.0
64.20200,24.0
64.21400,27.0
64.22600,15.0
64.23800,16.0
64.25000,18.0
64.26200,28.0
64.27400,23.0
64.28600,23.0
64.29800,24.0
64.31000,13.0
64.32200,16.0
64.33400,18.0
64.34600,17.0
64.35800,22.0
64.37000,22.0
64.38200,21.0
64.39400,24.0
64.40600,27.0
64.41800,23.0
64.43000,29.0
64.44200,14.0
64.45400,16.0
64.46600,22.0
64.47800,17.0
64.49000,13.0
64.50200,11.0
64.51400,16.0
64.52600,17.0
64.53800,20.0
64.55000,19.0
64.56200,18.0
64.57400,17.0
64.58600,16.0
64.59800,21.0
64.61000,26.0
64.62200,32.0
64.63400,18.0
64.64600,18.0
64.65800,19.0
64.67000,14.0
64.68200,10.0
64.69400,12.0
64.70600,17.0
64.71800,20.0
64.73000,17.0
64.74200,26.0
64.75400,20.0
64.76600,13.0
64.77800,10.0
64.79000,19.0
64.80200,12.0
64.81400,22.0
64.82600,23.0
64.83800,7.0
64.85000,22.0
64.86200,20.0
64.87400,18.0
64.88600,20.0
64.89800,21.0
64.91000,12.0
64.92200,23.0
64.93400,14.0
64.94600,23.0
64.95800,11.0
64.97000,17.0
64.98200,15.0
64.99400,19.0
65.00600,11.0
65.01800,11.0
65.03000,13.0
65.04200,19.0
65.05400,13.0
65.06600,13.0
65.07800,15.0
65.09000,15.0
65.10200,17.0
65.11400,15.0
65.12600,24.0
65.13800,21.0
65.15000,20.0
65.16200,23.0
65.17400,16.0
65.18600,16.0
65.19800,23.0
65.21000,22.0
65.22200,19.0
65.23400,18.0
65.24600,13.0
65.25800,21.0
65.27000,18.0
65.28200,24.0
65.29400,20.0
65.30600,17.0
65.31800,19.0
65.33000,20.0
65.34200,17.0
65.35400,14.0
65.36600,21.0
65.37800,16.0
65.39000,23.0
65.40200,20.0
65.41400,15.0
65.42600,22.0
65.43800,18.0
65.45000,13.0
65.46200,23.0
65.47400,12.0
65.48600,15.0
65.49800,23.0
65.51000,12.0
65.52200,20.0
65.53400,16.0
65.54600,10.0
65.55800,13.0
65.57000,18.0
65.58200,14.0
65.59400,23.0
65.60600,20.0
65.61800,23.0
65.63000,24.0
65.64200,17.0
65.65400,11.0
65.66600,20.0
65.67800,13.0
65.69000,18.0
65.70200,21.0
65.71400,18.0
65.72600,23.0
65.73800,15.0
65.75000,21.0
65.76200,16.0
65.77400,23.0
65.78600,23.0
65.79800,16.0
65.81000,26.0
65.82200,8.0
65.83400,24.0
65.84600,16.0
65.85800,17.0
65.87000,19.0
65.88200,15.0
65.89400,10.0
65.90600,18.0
65.91800,17.0
65.93000,20.0
65.94200,22.0
65.95400,15.0
65.96600,12.0
65.97800,11.0
65.99000,19.0
66.00200,19.0
66.01400,21.0
66.02600,17.0
66.03800,14.0
66.05000,19.0
66.06200,27.0
66.07400,16.0
66.08600,17.0
66.09800,21.0
66.11000,20.0
66.12200,23.0
66.13400,20.0
66.14600,25.0
66.15800,14.0
66.17000,15.0
66.18200,18.0
66.19400,13.0
66.20600,23.0
66.21800,18.0
66.23000,16.0
66.24200,15.0
66.25400,17.0
66.26600,21.0
66.27800,21.0
66.29000,19.0
66.30200,19.0
66.31400,19.0
66.32600,20.0
66.33800,16.0
66.35000,21.0
66.36200,20.0
66.37400,11.0
66.38600,18.0
66.39800,8.0
66.41000,20.0
66.42200,22.0
66.43400,16.0
66.44600,23.0
66.45800,19.0
66.47000,20.0
66.48200,21.0
66.49400,20.0
66.50600,14.0
66.51800,21.0
66.53000,17.0
66.54200,21.0
66.55400,19.0
66.56600,12.0
66.57800,20.0
66.59000,20.0
66.60200,13.0
66.61400,24.0
66.62600,16.0
66.63800,20.0
66.65000,18.0
66.66200,20.0
66.67400,15.0
66.68600,10.0
66.69800,13.0
66.71000,12.0
66.72200,18.0
66.73400,22.0
66.74600,18.0
66.75800,23.0
66.77000,14.0
66.78200,13.0
66.79400,19.0
66.80600,14.0
66.81800,13.0
66.83000,17.0
66.84200,11.0
66.85400,17.0
66.86600,21.0
66.87800,14.0
66.89000,18.0
66.90200,10.0
66.91400,16.0
66.92600,21.0
66.93800,23.0
66.95000,14.0
66.96200,13.0
66.97400,17.0
66.98600,11.0
66.99800,12.0
67.01000,10.0
67.02200,14.0
67.03400,17.0
67.04600,13.0
67.05800,21.0
67.07000,15.0
67.08200,22.0
67.09400,17.0
67.10600,13.0
67.11800,16.0
67.13000,22.0
67.14200,12.0
67.15400,13.0
67.16600,20.0
67.17800,18.0
67.19000,21.0
67.20200,17.0
67.21400,12.0
67.22600,12.0
67.23800,20.0
67.25000,14.0
67.26200,25.0
67.27400,22.0
67.28600,12.0
67.29800,20.0
67.31000,23.0
67.32200,12.0
67.33400,14.0
67.34600,13.0
67.35800,21.0
67.37000,14.0
67.38200,24.0
67.39400,13.0
67.40600,26.0
67.41800,21.0
67.43000,17.0
67.44200,13.0
67.45400,18.0
67.46600,20.0
67.47800,19.0
67.49000,17.0
67.50200,10.0
67.51400,20.0
67.52600,16.0
67.53800,23.0
67.55000,21.0
67.56200,13.0
67.57400,22.0
67.58600,22.0
67.59800,19.0
67.61000,12.0
67.62200,25.0
67.63400,18.0
67.64600,21.0
67.65800,13.0
67.67000,17.0
67.68200,25.0
67.69400,12.0
67.70600,13.0
67.71800,15.0
67.73000,23.0
67.74200,18.0
67.75400,17.0
67.76600,20.0
67.77800,20.0
67.79000,19.0
67.80200,21.0
67.81400,28.0
67.82600,15.0
67.83800,22.0
67.85000,17.0
67.86200,19.0
67.87400,22.0
67.88600,18.0
67.89800,17.0
67.91000,17.0
67.92200,19.0
67.93400,26.0
67.94600,26.0
67.95800,14.0
67.97000,14.0
67.98200,15.0
67.99400,15.0
68.00600,24.0
68.01800,15.0
68.03000,20.0
68.04200,14.0
68.05400,16.0
68.06600,21.0
68.07800,19.0
68.09000,14.0
68.10200,23.0
68.11400,12.0
68.12600,22.0
68.13800,19.0
68.15000,10.0
68.16200,16.0
68.17400,22.0
68.18600,16.0
68.19800,19.0
68.21000,22.0
68.22200,16.0
68.23400,14.0
68.24600,18.0
68.25800,23.0
68.27000,21.0
68.28200,15.0
68.29400,18.0
68.30600,16.0
68.31800,24.0
68.33000,23.0
68.34200,14.0
68.35400,20.0
68.36600,22.0
68.37800,20.0
68.39000,15.0
68.40200,13.0
68.41400,28.0
68.42600,17.0
68.43800,19.0
68.45000,12.0
68.46200,12.0
68.47400,22.0
68.48600,27.0
68.49800,24.0
68.51000,22.0
68.52200,23.0
68.53400,16.0
68.54600,26.0
68.55800,24.0
68.57000,26.0
68.58200,21.0
68.59400,21.0
68.60600,19.0
68.61800,27.0
68.63000,18.0
68.64200,31.0
68.65400,24.0
68.66600,28.0
68.67800,15.0
68.69000,22.0
68.70200,13.0
68.71400,12.0
68.72600,24.0
68.73800,18.0
68.75000,15.0
68.76200,25.0
68.77400,32.0
68.78600,21.0
68.79800,24.0
68.81000,23.0
68.82200,17.0
68.83400,27.0
68.84600,23.0
68.85800,25.0
68.87000,18.0
68.88200,21.0
68.89400,25.0
68.90600,30.0
68.91800,22.0
68.93000,24.0
68.94200,20.0
68.95400,30.0
68.96600,24.0
68.97800,28.0
68.99000,22.0
69.00200,32.0
69.01400,31.0
69.02600,26.0
69.03800,22.0
69.05000,36.0
69.06200,32.0
69.07400,33.0
69.08600,30.0
69.09800,30.0
69.11000,30.0
69.12200,28.0
69.13400,33.0
69.14600,26.0
69.15800,32.0
69.17000,26.0
69.18200,25.0
69.19400,18.0
69.20600,14.0
69.21800,33.0
69.23000,36.0
69.24200,33.0
69.25400,29.0
69.26600,27.0
69.27800,36.0
69.29000,38.0
69.30200,23.0
69.31400,30.0
69.32600,34.0
69.33800,25.0
69.35000,26.0
69.36200,33.0
69.37400,34.0
69.38600,40.0
69.39800,29.0
69.41000,35.0
69.42200,28.0
69.43400,40.0
69.44600,36.0
69.45800,38.0
69.47000,34.0
69.48200,39.0
69.49400,38.0
69.50600,35.0
69.51800,39.0
69.53000,36.0
69.54200,48.0
69.55400,48.0
69.56600,44.0
69.57800,51.0
69.59000,47.0
69.60200,50.0
69.61400,45.0
69.62600,37.0
69.63800,49.0
69.65000,43.0
69.66200,53.0
69.67400,58.0
69.68600,50.0
69.69800,55.0
69.71000,55.0
69.72200,50.0
69.73400,56.0
69.74600,64.0
69.75800,63.0
69.77000,71.0
69.78200,70.0
69.79400,53.0
69.80600,79.0
69.81800,69.0
69.83000,86.0
69.84200,87.0
69.85400,78.0
69.86600,75.0
69.87800,71.0
69.89000,64.0
69.90200,77.0
69.91400,106.0
69.92600,82.0
69.93800,85.0
69.95000,83.0
69.96200,88.0
69.97400,93.0
69.98600,110.0
69.99800,101.0
70.01000,85.0
70.02200,102.0
70.03400,112.0
70.04600,114.0
70.05800,113.0
70.07000,123.0
70.08200,116.0
70.09400,128.0
70.10600,144.0
70.11800,129.0
70.13000,134.0
70.14200,133.0
70.15400,119.0
70.16600,131.0
70.17800,156.0
70.19000,148.0
70.20200,123.0
70.21400,147.0
70.22600,156.0
70.23800,167.0
70.25000,154.0
70.26200,170.0
70.27400,138.0
70.28600,185.0
70.29800,180.0
70.31000,159.0
70.32200,177.0
70.33400,165.0
70.34600,182.0
70.35800,159.0
70.37000,168.0
70.38200,160.0
70.39400,175.0
70.40600,185.0
70.41800,163.0
70.43000,162.0
70.44200,178.0
70.45400,163.0
70.46600,169.0
70.47800,172.0
70.49000,161.0
70.50200,168.0
70.51400,156.0
70.52600,167.0
70.53800,150.0
70.55000,177.0
70.56200,172.0
70.57400,155.0
70.58600,163.0
70.59800,158.0
70.61000,144.0
70.62200,156.0
70.63400,154.0
70.64600,158.0
70.65800,112.0
70.67000,126.0
70.68200,135.0
70.69400,126.0
70.70600,120.0
70.71800,129.0
70.73000,108.0
70.74200,119.0
70.75400,98.0
70.76600,109.0
70.77800,115.0
70.79000,113.0
70.80200,85.0
70.81400,93.0
70.82600,105.0
70.83800,92.0
70.85000,107.0
70.86200,88.0
70.87400,105.0
70.88600,85.0
70.89800,78.0
70.91000,85.0
70.92200,87.0
70.93400,58.0
70.94600,81.0
70.95800,68.0
70.97000,65.0
70.98200,67.0
70.99400,77.0
71.00600,75.0
71.01800,53.0
71.03000,57.0
71.04200,63.0
71.05400,51.0
71.06600,63.0
71.07800,60.0
71.09000,49.0
71.10200,60.0
71.11400,60.0
71.12600,47.0
71.13800,40.0
71.15000,45.0
71.16200,38.0
71.17400,59.0
71.18600,48.0
71.19800,42.0
71.21000,47.0
71.22200,49.0
71.23400,35.0
71.24600,28.0
71.25800,34.0
71.27000,37.0
71.28200,33.0
71.29400,46.0
71.30600,36.0
71.31800,40.0
71.33000,33.0
71.34200,24.0
71.35400,40.0
71.36600,31.0
71.37800,32.0
71.39000,36.0
71.40200,32.0
71.41400,22.0
71.42600,33.0
71.43800,31.0
71.45000,23.0
71.46200,30.0
71.47400,29.0
71.48600,31.0
71.49800,27.0
71.51000,33.0
71.52200,20.0
71.53400,29.0
71.54600,29.0
71.55800,25.0
71.57000,25.0
71.58200,35.0
71.59400,27.0
71.60600,28.0
71.61800,26.0
71.63000,18.0
71.64200,27.0
71.65400,30.0
71.66600,26.0
71.67800,22.0
71.69000,22.0
71.70200,17.0
71.71400,28.0
71.72600,27.0
71.73800,25.0
71.75000,27.0
71.76200,20.0
71.77400,18.0
71.78600,19.0
71.79800,26.0
71.81000,20.0
71.82200,21.0
71.83400,27.0
71.84600,25.0
71.85800,25.0
71.87000,23.0
71.88200,30.0
71.89400,22.0
71.90600,23.0
71.91800,28.0
71.93000,23.0
71.94200,14.0
71.95400,19.0
71.96600,22.0
71.97800,11.0
71.99000,16.0
72.00200,22.0
72.01400,23.0
72.02600,24.0
72.03800,18.0
72.05000,16.0
72.06200,20.0
72.07400,22.0
72.08600,29.0
72.09800,24.0
72.11000,25.0
72.12200,20.0
72.13400,26.0
72.14600,13.0
72.15800,25.0
72.17000,22.0
72.18200,26.0
72.19400,19.0
72.20600,17.0
72.21800,18.0
72.23000,23.0
72.24200,25.0
72.25400,16.0
72.26600,22.0
72.27800,19.0
72.29000,19.0
72.30200,22.0
72.31400,24.0
72.32600,17.0
72.33800,24.0
72.35000,26.0
72.36200,30.0
72.37400,11.0
72.38600,31.0
72.39800,22.0
72.41000,16.0
72.42200,24.0
72.43400,20.0
72.44600,22.0
72.45800,18.0
72.47000,17.0
72.48200,18.0
72.49400,18.0
72.50600,25.0
72.51800,28.0
72.53000,21.0
72.54200,25.0
72.55400,19.0
72.56600,16.0
72.57800,18.0
72.59000,17.0
72.60200,22.0
72.61400,20.0
72.62600,25.0
72.63800,21.0
72.65000,26.0
72.66200,20.0
72.67400,19.0
72.68600,20.0
72.69800,18.0
72.71000,25.0
72.72200,21.0
72.73400,24.0
72.74600,31.0
72.75800,25.0
72.77000,21.0
72.78200,22.0
72.79400,14.0
72.80600,28.0
72.81800,25.0
72.83000,20.0
72.84200,26.0
72.85400,21.0
72.86600,29.0
72.87800,19.0
72.89000,26.0
72.90200,26.0
72.91400,23.0
72.92600,22.0
72.93800,19.0
72.95000,27.0
72.96200,19.0
72.97400,17.0
72.98600,16.0
72.99800,27.0
73.01000,27.0
73.02200,31.0
73.03400,20.0
73.04600,24.0
73.05800,27.0
73.07000,23.0
73.08200,22.0
73.09400,31.0
73.10600,26.0
73.11800,22.0
73.13000,30.0
73.14200,20.0
73.15400,18.0
73.16600,29.0
73.17800,35.0
73.19000,24.0
73.20200,42.0
73.21400,39.0
73.22600,39.0
73.23800,20.0
73.25000,33.0
73.26200,29.0
73.27400,27.0
73.28600,20.0
73.29800,36.0
73.31000,34.0
73.32200,39.0
73.33400,29.0
73.34600,40.0
73.35800,37.0
73.37000,26.0
73.38200,27.0
73.39400,36.0
73.40600,31.0
73.41800,31.0
73.43000,31.0
73.44200,31.0
73.45400,40.0
73.46600,34.0
73.47800,31.0
73.49000,30.0
73.50200,32.0
73.51400,28.0
73.52600,37.0
73.53800,25.0
73.55000,25.0
73.56200,34.0
73.57400,36.0
73.58600,27.0
73.59800,29.0
73.61000,42.0
73.62200,27.0
73.63400,24.0
73.64600,30.0
73.65800,33.0
73.67000,27.0
73.68200,35.0
73.69400,38.0
73.70600,38.0
73.71800,42.0
73.73000,38.0
73.74200,30.0
73.75400,44.0
73.76600,26.0
73.77800,36.0
73.79000,28.0
73.80200,33.0
73.81400,32.0
73.82600,39.0
73.83800,28.0
73.85000,30.0
73.86200,39.0
73.87400,35.0
73.88600,30.0
73.89800,33.0
73.91000,26.0
73.92200,30.0
73.93400,35.0
73.94600,34.0
73.95800,36.0
73.97000,30.0
73.98200,30.0
73.99400,20.0
74.00600,35.0
74.01800,32.0
74.03000,27.0
74.04200,38.0
74.05400,35.0
74.06600,22.0
74.07800,36.0
74.09000,23.0
74.10200,30.0
74.11400,30.0
74.12600,33.0
74.13800,31.0
74.15000,35.0
74.16200,31.0
74.17400,31.0
74.18600,33.0
74.19800,20.0
74.21000,29.0
74.22200,29.0
74.23400,17.0
74.24600,28.0
74.25800,34.0
74.27000,26.0
74.28200,28.0
74.29400,29.0
74.30600,19.0
74.31800,29.0
74.33000,28.0
74.34200,31.0
74.35400,32.0
74.36600,24.0
74.37800,26.0
74.39000,24.0
74.40200,24.0
74.41400,26.0
74.42600,35.0
74.43800,32.0
74.45000,34.0
74.46200,21.0
74.47400,26.0
74.48600,39.0
74.49800,30.0
74.51000,33.0
74.52200,31.0
74.53400,20.0
74.54600,24.0
74.55800,29.0
74.57000,30.0
74.58200,31.0
74.59400,36.0
74.60600,24.0
74.61800,22.0
74.63000,31.0
74.64200,25.0
74.65400,24.0
74.66600,27.0
74.67800,25.0
74.69000,27.0
74.70200,32.0
74.71400,23.0
74.72600,29.0
74.73800,31.0
74.75000,23.0
74.76200,26.0
74.77400,27.0
74.78600,21.0
74.79800,25.0
74.81000,25.0
74.82200,36.0
74.83400,23.0
74.84600,35.0
74.85800,29.0
74.87000,33.0
74.88200,33.0
74.89400,43.0
74.90600,27.0
74.91800,31.0
74.93000,34.0
74.94200,30.0
74.95400,30.0
74.96600,39.0
74.97800,16.0
74.99000,36.0
75.00200,35.0
75.01400,25.0
75.02600,34.0
75.03800,36.0
75.05000,30.0
75.06200,34.0
75.07400,24.0
75.08600,42.0
75.09800,36.0
75.11000,32.0
75.12200,37.0
75.13400,47.0
75.14600,38.0
75.15800,35.0
75.17000,49.0
75.18200,34.0
75.19400,31.0
75.20600,42.0
75.21800,36.0
75.23000,42.0
75.24200,49.0
75.25400,37.0
75.26600,48.0
75.27800,46.0
75.29000,40.0
75.30200,37.0
75.31400,45.0
75.32600,41.0
75.33800,49.0
75.35000,46.0
75.36200,50.0
75.37400,58.0
75.38600,60.0
75.39800,62.0
75.41000,53.0
75.42200,68.0
75.43400,64.0
75.44600,66.0
75.45800,71.0
75.47000,49.0
75.48200,65.0
75.49400,64.0
75.50600,67.0
75.51800,66.0
75.53000,71.0
75.54200,68.0
75.55400,96.0
75.56600,70.0
75.57800,71.0
75.59000,78.0
75.60200,85.0
75.61400,104.0
75.62600,73.0
75.63800,95.0
75.65000,103.0
75.66200,89.0
75.67400,90.0
75.68600,109.0
75.69800,108.0
75.71000,104.0
75.72200,89.0
75.73400,124.0
75.74600,90.0
75.75800,89.0
75.77000,112.0
75.78200,100.0
75.79400,123.0
75.80600,130.0
75.81800,113.0
75.83000,125.0
75.84200,109.0
75.85400,131.0
75.86600,134.0
75.87800,112.0
75.89000,143.0
75.90200,101.0
75.91400,102.0
75.92600,127.0
75.93800,135.0
75.95000,141.0
75.96200,143.0
75.97400,148.0
75.98600,143.0
75.99800,129.0
76.01000,139.0
76.02200,154.0
76.03400,143.0
76.04600,142.0
76.05800,129.0
76.07000,126.0
76.08200,145.0
76.09400,135.0
76.10600,143.0
76.11800,143.0
76.13000,115.0
76.14200,138.0
76.15400,152.0
76.16600,129.0
76.17800,133.0
76.19000,147.0
76.20200,132.0
76.21400,129.0
76.22600,139.0
76.23800,135.0
76.25000,138.0
76.26200,131.0
76.27400,124.0
76.28600,107.0
76.29800,112.0
76.31000,120.0
76.32200,123.0
76.33400,128.0
76.34600,120.0
76.35800,114.0
76.37000,123.0
76.38200,118.0
76.39400,123.0
76.40600,113.0
76.41800,119.0
76.43000,107.0
76.44200,125.0
76.45400,100.0
76.46600,108.0
76.47800,116.0
76.49000,98.0
76.50200,87.0
76.51400,95.0
76.52600,102.0
76.53800,96.0
76.55000,87.0
76.56200,120.0
76.57400,92.0
76.58600,87.0
76.59800,102.0
76.61000,89.0
76.62200,93.0
76.63400,90.0
76.64600,79.0
76.65800,85.0
76.67000,93.0
76.68200,84.0
76.69400,89.0
76.70600,110.0
76.71800,113.0
76.73000,84.0
76.74200,99.0
76.75400,98.0
76.76600,113.0
76.77800,80.0
76.79000,91.0
76.80200,79.0
76.81400,89.0
76.82600,87.0
76.83800,104.0
76.85000,92.0
76.86200,100.0
76.87400,107.0
76.88600,88.0
76.89800,84.0
76.91000,99.0
76.92200,80.0
76.93400,75.0
76.94600,73.0
76.95800,100.0
76.97000,114.0
76.98200,103.0
76.99400,95.0
77.00600,86.0
77.01800,72.0
77.03000,83.0
77.04200,102.0
77.05400,87.0
77.06600,76.0
77.07800,98.0
77.09000,92.0
77.10200,103.0
77.11400,98.0
77.12600,103.0
77.13800,89.0
77.15000,100.0
77.16200,115.0
77.17400,85.0
77.18600,79.0
77.19800,95.0
77.21000,87.0
77.22200,102.0
77.23400,96.0
77.24600,94.0
77.25800,79.0
77.27000,87.0
77.28200,82.0
77.29400,102.0
77.30600,98.0
77.31800,79.0
77.33000,80.0
77.34200,61.0
77.35400,74.0
77.36600,79.0
77.37800,80.0
77.39000,92.0
77.40200,79.0
77.41400,70.0
77.42600,82.0
77.43800,80.0
77.45000,69.0
77.46200,81.0
77.47400,71.0
77.48600,76.0
77.49800,78.0
77.51000,77.0
77.52200,75.0
77.53400,81.0
77.54600,81.0
77.55800,58.0
77.57000,62.0
77.58200,74.0
77.59400,64.0
77.60600,60.0
77.61800,56.0
77.63000,66.0
77.64200,74.0
77.65400,59.0
77.66600,67.0
77.67800,76.0
77.69000,65.0
77.70200,56.0
77.71400,79.0
77.72600,60.0
77.73800,57.0
77.75000,57.0
77.76200,61.0
77.77400,74.0
77.78600,60.0
77.79800,53.0
77.81000,57.0
77.82200,46.0
77.83400,46.0
77.84600,50.0
77.85800,47.0
77.87000,58.0
77.88200,57.0
77.89400,38.0
77.90600,46.0
77.91800,52.0
77.93000,56.0
77.94200,46.0
77.95400,41.0
77.96600,53.0
77.97800,32.0
77.99000,46.0
78.00200,40.0
78.01400,43.0
78.02600,28.0
78.03800,41.0
78.05000,37.0
78.06200,39.0
78.07400,37.0
78.08600,42.0
78.09800,32.0
78.11000,39.0
78.12200,33.0
78.13400,34.0
78.14600,42.0
78.15800,40.0
78.17000,28.0
78.18200,38.0
78.19400,33.0
78.20600,21.0
78.21800,35.0
78.23000,33.0
78.24200,34.0
78.25400,36.0
78.26600,30.0
78.27800,37.0
78.29000,31.0
78.30200,28.0
78.31400,33.0
78.32600,30.0
78.33800,24.0
78.35000,28.0
78.36200,38.0
78.37400,30.0
78.38600,31.0
78.39800,26.0
78.41000,28.0
78.42200,29.0
78.43400,23.0
78.44600,29.0
78.45800,36.0
78.47000,28.0
78.48200,28.0
78.49400,26.0
78.50600,30.0
78.51800,12.0
78.53000,27.0
78.54200,24.0
78.55400,15.0
78.56600,30.0
78.57800,27.0
78.59000,26.0
78.60200,23.0
78.61400,25.0
78.62600,20.0
78.63800,22.0
78.65000,17.0
78.66200,22.0
78.67400,27.0
78.68600,23.0
78.69800,19.0
78.71000,23.0
78.72200,27.0
78.73400,17.0
78.74600,20.0
78.75800,21.0
78.77000,19.0
78.78200,29.0
78.79400,18.0
78.80600,14.0
78.81800,27.0
78.83000,24.0
78.84200,19.0
78.85400,14.0
78.86600,20.0
78.87800,26.0
78.89000,24.0
78.90200,34.0
78.91400,21.0
78.92600,21.0
78.93800,19.0
78.95000,26.0
78.96200,15.0
78.97400,28.0
78.98600,15.0
78.99800,26.0
79.01000,30.0
79.02200,19.0
79.03400,24.0
79.04600,22.0
79.05800,28.0
79.07000,24.0
79.08200,16.0
79.09400,23.0
79.10600,21.0
79.11800,19.0
79.13000,15.0
79.14200,31.0
79.15400,21.0
79.16600,21.0
79.17800,31.0
79.19000,24.0
79.20200,11.0
79.21400,12.0
79.22600,15.0
79.23800,15.0
79.25000,19.0
79.26200,25.0
79.27400,17.0
79.28600,19.0
79.29800,16.0
79.31000,22.0
79.32200,17.0
79.33400,17.0
79.34600,17.0
79.35800,15.0
79.37000,19.0
79.38200,19.0
79.39400,16.0
79.40600,18.0
79.41800,13.0
79.43000,23.0
79.44200,18.0
79.45400,24.0
79.46600,24.0
79.47800,21.0
79.49000,26.0
79.50200,20.0
79.51400,19.0
79.52600,21.0
79.53800,22.0
79.55000,23.0
79.56200,20.0
79.57400,12.0
79.58600,19.0
79.59800,13.0
79.61000,14.0
79.62200,19.0
79.63400,7.0
79.64600,20.0
79.65800,16.0
79.67000,14.0
79.68200,18.0
79.69400,18.0
79.70600,12.0
79.71800,8.0
79.73000,15.0
79.74200,9.0
79.75400,24.0
79.76600,14.0
79.77800,18.0
79.79000,16.0
79.80200,11.0
79.81400,17.0
79.82600,12.0
79.83800,14.0
79.85000,20.0
79.86200,18.0
79.87400,12.0
79.88600,13.0
79.89800,8.0
79.91000,11.0
79.92200,19.0
79.93400,20.0
79.94600,19.0
79.95800,15.0
79.97000,17.0
79.98200,16.0
79.99400,16.0
