[Measurement conditions]
Sample identification,
Comment - 1,"Configuration=Filmes Finos 19_1_2015, Owner=User-1, Creation date=19/01/2015 21:17:15"
Comment - 2,"Goniometer=PW3050/60 (Theta/Theta); Minimum step size 2Theta:0.001; Minimum step size Omega:0.001"
Comment - 3,"Sample stage=PW3071/xx Bracket"
Comment - 4,"Diffractometer system=XPERT-PRO"
Comment - 5,"Measurement program=C:\PANalytical\Data Collector\Programs\GrazingIncidence.xrdmp, Identifier={FFFADE1E-4F1E-43E6-AE83-51B7A97F4E56}"
Anode material,Cu
K-Alpha1 wavelength,1.5405980
K-Alpha2 wavelength,1.5444260
Ratio K-Alpha2/K-Alpha1,0.500
Divergence slit,Fixed,0.10mm
Receiving slit,0.10
Monochromator used,YES
Generator voltage, 40
Tube current, 40
File date and time,19/Jan/2018 20:01
Unit cell,
h k l, 0 0 0
Scan axis,2Theta
Scan range,8.000,60.000
Scan step size,0.0250000
No. of points, 2081
Scan type,STEP
Omega,2.000
Time per step,20.000
[Scan points]
Angle,Intensity
8.000,103
8.025,102
8.050,103
8.075,102
8.100,103
8.125,102
8.150,101
8.175,99
8.200,98
8.225,103
8.250,99
8.275,100
8.300,100
8.325,99
8.350,99
8.375,99
8.400,101
8.425,97
8.450,97
8.475,98
8.500,97
8.525,97
8.550,94
8.575,100
8.600,97
8.625,96
8.650,95
8.675,97
8.700,90
8.725,93
8.750,98
8.775,93
8.800,95
8.825,92
8.850,94
8.875,95
8.900,91
8.925,93
8.950,95
8.975,89
9.000,90
9.025,92
9.050,90
9.075,91
9.100,92
9.125,92
9.150,92
9.175,89
9.200,93
9.225,89
9.250,90
9.275,91
9.300,90
9.325,91
9.350,90
9.375,91
9.400,91
9.425,93
9.450,93
9.475,94
9.500,89
9.525,89
9.550,88
9.575,88
9.600,90
9.625,88
9.650,83
9.675,86
9.700,92
9.725,87
9.750,87
9.775,84
9.800,86
9.825,81
9.850,82
9.875,84
9.900,85
9.925,85
9.950,82
9.975,82
10.000,86
10.025,85
10.050,82
10.075,85
10.100,82
10.125,84
10.150,84
10.175,85
10.200,84
10.225,81
10.250,80
10.275,79
10.300,80
10.325,81
10.350,82
10.375,85
10.400,79
10.425,77
10.450,82
10.475,81
10.500,82
10.525,87
10.550,76
10.575,82
10.600,83
10.625,81
10.650,77
10.675,82
10.700,84
10.725,84
10.750,81
10.775,83
10.800,84
10.825,81
10.850,81
10.875,78
10.900,75
10.925,81
10.950,78
10.975,78
11.000,74
11.025,77
11.050,76
11.075,77
11.100,75
11.125,76
11.150,77
11.175,74
11.200,76
11.225,76
11.250,76
11.275,74
11.300,73
11.325,74
11.350,76
11.375,73
11.400,75
11.425,74
11.450,71
11.475,68
11.500,77
11.525,75
11.550,74
11.575,74
11.600,74
11.625,73
11.650,70
11.675,73
11.700,71
11.725,73
11.750,73
11.775,72
11.800,74
11.825,74
11.850,71
11.875,76
11.900,72
11.925,72
11.950,74
11.975,71
12.000,71
12.025,71
12.050,75
12.075,73
12.100,73
12.125,70
12.150,72
12.175,70
12.200,69
12.225,70
12.250,73
12.275,67
12.300,70
12.325,70
12.350,73
12.375,73
12.400,74
12.425,68
12.450,71
12.475,70
12.500,69
12.525,69
12.550,71
12.575,65
12.600,71
12.625,67
12.650,69
12.675,69
12.700,67
12.725,64
12.750,68
12.775,69
12.800,68
12.825,68
12.850,70
12.875,67
12.900,68
12.925,69
12.950,65
12.975,68
13.000,68
13.025,63
13.050,69
13.075,70
13.100,65
13.125,72
13.150,68
13.175,65
13.200,66
13.225,70
13.250,65
13.275,66
13.300,68
13.325,66
13.350,66
13.375,68
13.400,65
13.425,68
13.450,66
13.475,65
13.500,65
13.525,65
13.550,67
13.575,64
13.600,67
13.625,67
13.650,64
13.675,68
13.700,64
13.725,65
13.750,66
13.775,62
13.800,63
13.825,67
13.850,63
13.875,62
13.900,63
13.925,66
13.950,66
13.975,61
14.000,62
14.025,62
14.050,63
14.075,65
14.100,61
14.125,60
14.150,64
14.175,63
14.200,61
14.225,62
14.250,64
14.275,61
14.300,61
14.325,61
14.350,60
14.375,63
14.400,64
14.425,62
14.450,60
14.475,60
14.500,62
14.525,64
14.550,60
14.575,63
14.600,59
14.625,60
14.650,60
14.675,63
14.700,60
14.725,62
14.750,62
14.775,61
14.800,59
14.825,60
14.850,61
14.875,57
14.900,57
14.925,58
14.950,60
14.975,61
15.000,59
15.025,61
15.050,59
15.075,57
15.100,63
15.125,59
15.150,56
15.175,58
15.200,60
15.225,58
15.250,57
15.275,57
15.300,59
15.325,55
15.350,59
15.375,59
15.400,60
15.425,55
15.450,57
15.475,56
15.500,61
15.525,55
15.550,57
15.575,57
15.600,56
15.625,58
15.650,59
15.675,56
15.700,54
15.725,59
15.750,53
15.775,57
15.800,59
15.825,58
15.850,58
15.875,57
15.900,57
15.925,56
15.950,57
15.975,57
16.000,60
16.025,56
16.050,56
16.075,54
16.100,56
16.125,57
16.150,58
16.175,59
16.200,54
16.225,57
16.250,57
16.275,58
16.300,58
16.325,55
16.350,57
16.375,56
16.400,55
16.425,56
16.450,58
16.475,55
16.500,56
16.525,57
16.550,57
16.575,55
16.600,55
16.625,55
16.650,56
16.675,58
16.700,58
16.725,57
16.750,57
16.775,57
16.800,55
16.825,59
16.850,57
16.875,57
16.900,56
16.925,55
16.950,54
16.975,55
17.000,56
17.025,55
17.050,53
17.075,54
17.100,55
17.125,52
17.150,53
17.175,55
17.200,55
17.225,54
17.250,55
17.275,54
17.300,53
17.325,52
17.350,53
17.375,54
17.400,54
17.425,56
17.450,50
17.475,52
17.500,55
17.525,53
17.550,56
17.575,55
17.600,52
17.625,54
17.650,54
17.675,57
17.700,53
17.725,50
17.750,51
17.775,55
17.800,55
17.825,53
17.850,49
17.875,51
17.900,52
17.925,51
17.950,54
17.975,52
18.000,50
18.025,52
18.050,52
18.075,53
18.100,51
18.125,54
18.150,52
18.175,55
18.200,51
18.225,52
18.250,52
18.275,52
18.300,53
18.325,53
18.350,55
18.375,50
18.400,52
18.425,50
18.450,51
18.475,48
18.500,51
18.525,51
18.550,49
18.575,52
18.600,51
18.625,51
18.650,49
18.675,47
18.700,51
18.725,49
18.750,53
18.775,50
18.800,52
18.825,50
18.850,50
18.875,52
18.900,50
18.925,50
18.950,51
18.975,50
19.000,48
19.025,50
19.050,49
19.075,52
19.100,52
19.125,49
19.150,50
19.175,47
19.200,48
19.225,49
19.250,47
19.275,46
19.300,49
19.325,45
19.350,48
19.375,48
19.400,49
19.425,47
19.450,51
19.475,49
19.500,47
19.525,48
19.550,49
19.575,48
19.600,49
19.625,48
19.650,49
19.675,47
19.700,47
19.725,50
19.750,49
19.775,46
19.800,44
19.825,49
19.850,45
19.875,47
19.900,47
19.925,46
19.950,45
19.975,47
20.000,48
20.025,46
20.050,47
20.075,46
20.100,47
20.125,47
20.150,46
20.175,46
20.200,46
20.225,45
20.250,48
20.275,49
20.300,47
20.325,45
20.350,44
20.375,46
20.400,46
20.425,46
20.450,43
20.475,49
20.500,46
20.525,43
20.550,43
20.575,44
20.600,46
20.625,44
20.650,45
20.675,44
20.700,47
20.725,45
20.750,44
20.775,46
20.800,42
20.825,46
20.850,44
20.875,40
20.900,44
20.925,44
20.950,43
20.975,42
21.000,43
21.025,43
21.050,41
21.075,46
21.100,42
21.125,44
21.150,45
21.175,46
21.200,48
21.225,48
21.250,48
21.275,50
21.300,52
21.325,53
21.350,48
21.375,45
21.400,48
21.425,49
21.450,50
21.475,46
21.500,45
21.525,44
21.550,43
21.575,43
21.600,44
21.625,42
21.650,41
21.675,43
21.700,42
21.725,38
21.750,43
21.775,41
21.800,43
21.825,41
21.850,42
21.875,41
21.900,41
21.925,40
21.950,41
21.975,40
22.000,38
22.025,42
22.050,41
22.075,41
22.100,40
22.125,42
22.150,40
22.175,40
22.200,39
22.225,39
22.250,40
22.275,38
22.300,40
22.325,41
22.350,39
22.375,41
22.400,38
22.425,38
22.450,38
22.475,40
22.500,39
22.525,40
22.550,36
22.575,39
22.600,40
22.625,39
22.650,36
22.675,38
22.700,41
22.725,39
22.750,37
22.775,39
22.800,36
22.825,39
22.850,39
22.875,37
22.900,39
22.925,36
22.950,39
22.975,34
23.000,35
23.025,41
23.050,38
23.075,37
23.100,35
23.125,36
23.150,33
23.175,36
23.200,36
23.225,37
23.250,33
23.275,35
23.300,35
23.325,37
23.350,38
23.375,36
23.400,35
23.425,34
23.450,36
23.475,34
23.500,34
23.525,33
23.550,35
23.575,35
23.600,35
23.625,34
23.650,34
23.675,36
23.700,32
23.725,36
23.750,33
23.775,33
23.800,34
23.825,33
23.850,35
23.875,36
23.900,34
23.925,33
23.950,33
23.975,33
24.000,31
24.025,34
24.050,33
24.075,33
24.100,34
24.125,31
24.150,35
24.175,32
24.200,35
24.225,31
24.250,34
24.275,29
24.300,34
24.325,34
24.350,32
24.375,32
24.400,31
24.425,31
24.450,31
24.475,32
24.500,31
24.525,30
24.550,31
24.575,32
24.600,31
24.625,31
24.650,28
24.675,30
24.700,30
24.725,29
24.750,31
24.775,30
24.800,30
24.825,30
24.850,32
24.875,32
24.900,30
24.925,32
24.950,33
24.975,32
25.000,31
25.025,30
25.050,32
25.075,31
25.100,29
25.125,30
25.150,31
25.175,32
25.200,29
25.225,31
25.250,33
25.275,29
25.300,30
25.325,30
25.350,31
25.375,34
25.400,32
25.425,32
25.450,32
25.475,33
25.500,31
25.525,34
25.550,37
25.575,37
25.600,37
25.625,37
25.650,38
25.675,39
25.700,35
25.725,35
25.750,36
25.775,33
25.800,32
25.825,33
25.850,32
25.875,30
25.900,31
25.925,29
25.950,29
25.975,28
26.000,28
26.025,27
26.050,28
26.075,26
26.100,27
26.125,27
26.150,27
26.175,26
26.200,28
26.225,27
26.250,26
26.275,28
26.300,26
26.325,25
26.350,27
26.375,26
26.400,27
26.425,26
26.450,26
26.475,27
26.500,25
26.525,25
26.550,25
26.575,26
26.600,28
26.625,24
26.650,25
26.675,24
26.700,25
26.725,25
26.750,25
26.775,27
26.800,25
26.825,24
26.850,25
26.875,23
26.900,24
26.925,25
26.950,24
26.975,23
27.000,24
27.025,23
27.050,23
27.075,27
27.100,22
27.125,23
27.150,25
27.175,24
27.200,24
27.225,24
27.250,23
27.275,23
27.300,21
27.325,22
27.350,24
27.375,22
27.400,22
27.425,24
27.450,25
27.475,22
27.500,24
27.525,20
27.550,23
27.575,21
27.600,22
27.625,23
27.650,24
27.675,22
27.700,23
27.725,23
27.750,25
27.775,24
27.800,25
27.825,24
27.850,26
27.875,24
27.900,24
27.925,22
27.950,24
27.975,23
28.000,23
28.025,25
28.050,23
28.075,21
28.100,22
28.125,22
28.150,23
28.175,22
28.200,23
28.225,21
28.250,23
28.275,21
28.300,22
28.325,23
28.350,22
28.375,20
28.400,21
28.425,23
28.450,23
28.475,22
28.500,22
28.525,22
28.550,22
28.575,21
28.600,23
28.625,22
28.650,23
28.675,25
28.700,23
28.725,23
28.750,23
28.775,24
28.800,24
28.825,23
28.850,23
28.875,24
28.900,22
28.925,21
28.950,21
28.975,22
29.000,23
29.025,19
29.050,23
29.075,20
29.100,20
29.125,21
29.150,19
29.175,20
29.200,20
29.225,19
29.250,21
29.275,20
29.300,18
29.325,18
29.350,19
29.375,20
29.400,19
29.425,19
29.450,20
29.475,21
29.500,19
29.525,18
29.550,20
29.575,19
29.600,19
29.625,19
29.650,19
29.675,19
29.700,19
29.725,19
29.750,20
29.775,19
29.800,18
29.825,19
29.850,18
29.875,18
29.900,20
29.925,16
29.950,20
29.975,18
30.000,19
30.025,18
30.050,18
30.075,18
30.100,19
30.125,18
30.150,19
30.175,18
30.200,19
30.225,19
30.250,18
30.275,17
30.300,18
30.325,19
30.350,19
30.375,18
30.400,18
30.425,19
30.450,20
30.475,21
30.500,18
30.525,19
30.550,18
30.575,20
30.600,18
30.625,20
30.650,18
30.675,20
30.700,18
30.725,17
30.750,17
30.775,18
30.800,21
30.825,17
30.850,18
30.875,19
30.900,18
30.925,19
30.950,19
30.975,18
31.000,18
31.025,20
31.050,20
31.075,19
31.100,20
31.125,21
31.150,22
31.175,21
31.200,21
31.225,23
31.250,26
31.275,25
31.300,28
31.325,32
31.350,31
31.375,33
31.400,36
31.425,36
31.450,41
31.475,42
31.500,43
31.525,43
31.550,46
31.575,48
31.600,47
31.625,48
31.650,47
31.675,44
31.700,44
31.725,48
31.750,46
31.775,47
31.800,44
31.825,44
31.850,44
31.875,41
31.900,39
31.925,39
31.950,40
31.975,35
32.000,37
32.025,37
32.050,35
32.075,32
32.100,32
32.125,29
32.150,28
32.175,24
32.200,25
32.225,25
32.250,22
32.275,22
32.300,23
32.325,22
32.350,20
32.375,22
32.400,21
32.425,22
32.450,21
32.475,22
32.500,23
32.525,23
32.550,23
32.575,26
32.600,26
32.625,28
32.650,30
32.675,28
32.700,31
32.725,29
32.750,29
32.775,25
32.800,28
32.825,26
32.850,26
32.875,26
32.900,25
32.925,23
32.950,21
32.975,21
33.000,18
33.025,20
33.050,19
33.075,17
33.100,17
33.125,15
33.150,16
33.175,17
33.200,15
33.225,15
33.250,15
33.275,15
33.300,14
33.325,16
33.350,13
33.375,14
33.400,13
33.425,16
33.450,16
33.475,16
33.500,15
33.525,16
33.550,17
33.575,18
33.600,18
33.625,17
33.650,18
33.675,16
33.700,18
33.725,20
33.750,19
33.775,18
33.800,21
33.825,18
33.850,18
33.875,18
33.900,18
33.925,15
33.950,15
33.975,18
34.000,16
34.025,16
34.050,15
34.075,14
34.100,14
34.125,14
34.150,14
34.175,14
34.200,14
34.225,12
34.250,14
34.275,12
34.300,14
34.325,12
34.350,13
34.375,12
34.400,12
34.425,13
34.450,12
34.475,11
34.500,12
34.525,13
34.550,12
34.575,12
34.600,11
34.625,11
34.650,11
34.675,12
34.700,12
34.725,13
34.750,12
34.775,11
34.800,12
34.825,12
34.850,10
34.875,11
34.900,12
34.925,11
34.950,12
34.975,11
35.000,12
35.025,12
35.050,11
35.075,12
35.100,12
35.125,11
35.150,12
35.175,13
35.200,12
35.225,13
35.250,10
35.275,11
35.300,13
35.325,13
35.350,10
35.375,12
35.400,11
35.425,11
35.450,12
35.475,12
35.500,10
35.525,11
35.550,11
35.575,11
35.600,10
35.625,10
35.650,11
35.675,10
35.700,10
35.725,11
35.750,11
35.775,10
35.800,10
35.825,11
35.850,11
35.875,10
35.900,11
35.925,11
35.950, 9
35.975,11
36.000,11
36.025,11
36.050,11
36.075,11
36.100,11
36.125,10
36.150,10
36.175,11
36.200,10
36.225, 9
36.250,10
36.275,10
36.300,10
36.325, 9
36.350,10
36.375,10
36.400,11
36.425,10
36.450,10
36.475, 9
36.500,10
36.525,10
36.550,10
36.575, 9
36.600,11
36.625,10
36.650,11
36.675,10
36.700,10
36.725,12
36.750,10
36.775,11
36.800,11
36.825,11
36.850,11
36.875,10
36.900,11
36.925,11
36.950,12
36.975,13
37.000,11
37.025,13
37.050,12
37.075,12
37.100,14
37.125,14
37.150,13
37.175,14
37.200,13
37.225,14
37.250,12
37.275,13
37.300,13
37.325,11
37.350,13
37.375,11
37.400,11
37.425,11
37.450,11
37.475,11
37.500,11
37.525,10
37.550,11
37.575,11
37.600,10
37.625,11
37.650,10
37.675, 9
37.700,10
37.725,11
37.750, 8
37.775, 9
37.800,10
37.825,10
37.850,10
37.875,10
37.900, 9
37.925,10
37.950, 9
37.975, 9
38.000,10
38.025,10
38.050, 8
38.075, 9
38.100, 8
38.125,10
38.150, 8
38.175, 8
38.200, 9
38.225,10
38.250, 9
38.275, 9
38.300, 9
38.325,11
38.350, 9
38.375,10
38.400, 9
38.425,10
38.450, 9
38.475, 9
38.500, 8
38.525,10
38.550, 9
38.575, 9
38.600,10
38.625, 8
38.650, 9
38.675,10
38.700, 9
38.725, 9
38.750,10
38.775,10
38.800,10
38.825,10
38.850,10
38.875,10
38.900,10
38.925,11
38.950, 8
38.975,10
39.000,10
39.025,10
39.050, 9
39.075,10
39.100,11
39.125,10
39.150,10
39.175, 9
39.200, 8
39.225,10
39.250,10
39.275,10
39.300, 9
39.325,11
39.350,11
39.375,11
39.400,10
39.425,10
39.450,11
39.475,11
39.500,12
39.525,12
39.550,12
39.575,12
39.600,13
39.625,13
39.650,11
39.675,13
39.700,12
39.725,13
39.750,11
39.775,12
39.800,11
39.825,11
39.850,11
39.875,10
39.900,11
39.925,10
39.950,10
39.975, 8
40.000,10
40.025, 9
40.050, 9
40.075,10
40.100, 9
40.125, 9
40.150, 9
40.175, 9
40.200, 9
40.225, 9
40.250,10
40.275,10
40.300, 8
40.325, 8
40.350, 9
40.375, 9
40.400,10
40.425, 8
40.450, 8
40.475, 7
40.500, 8
40.525,10
40.550, 9
40.575, 9
40.600, 8
40.625, 9
40.650, 9
40.675, 8
40.700, 8
40.725, 8
40.750, 8
40.775, 9
40.800, 9
40.825, 9
40.850, 8
40.875, 8
40.900, 7
40.925, 9
40.950, 8
40.975, 8
41.000, 9
41.025,10
41.050, 8
41.075, 8
41.100, 8
41.125, 8
41.150, 8
41.175, 9
41.200, 8
41.225, 8
41.250, 8
41.275, 9
41.300, 8
41.325, 8
41.350, 8
41.375, 7
41.400, 9
41.425, 8
41.450, 9
41.475, 8
41.500, 9
41.525, 9
41.550,10
41.575, 9
41.600, 8
41.625,10
41.650,10
41.675, 8
41.700,10
41.725, 9
41.750, 9
41.775, 9
41.800,10
41.825,10
41.850,10
41.875, 9
41.900,11
41.925,10
41.950,10
41.975,10
42.000, 9
42.025,10
42.050,10
42.075, 9
42.100, 9
42.125,10
42.150, 9
42.175,10
42.200,10
42.225, 9
42.250, 9
42.275, 9
42.300,10
42.325, 9
42.350, 9
42.375,10
42.400, 9
42.425, 9
42.450, 9
42.475,10
42.500, 9
42.525,10
42.550,10
42.575,10
42.600,11
42.625,10
42.650, 9
42.675,11
42.700,10
42.725,10
42.750,11
42.775,11
42.800,11
42.825,10
42.850,12
42.875,11
42.900,12
42.925,11
42.950,14
42.975,11
43.000,13
43.025,12
43.050,13
43.075,13
43.100,14
43.125,11
43.150,14
43.175,12
43.200,13
43.225,13
43.250,12
43.275,14
43.300,14
43.325,13
43.350,14
43.375,14
43.400,12
43.425,12
43.450,12
43.475,13
43.500,13
43.525,14
43.550,12
43.575,15
43.600,13
43.625,12
43.650,13
43.675,12
43.700,10
43.725,10
43.750,12
43.775,13
43.800,12
43.825,11
43.850,10
43.875, 9
43.900,12
43.925, 9
43.950,10
43.975,10
44.000,11
44.025,11
44.050, 9
44.075,10
44.100,10
44.125,10
44.150,10
44.175, 9
44.200,10
44.225, 9
44.250, 9
44.275, 9
44.300, 9
44.325, 9
44.350, 9
44.375, 8
44.400, 9
44.425, 8
44.450, 9
44.475, 8
44.500, 9
44.525, 8
44.550, 9
44.575, 9
44.600, 8
44.625, 9
44.650,10
44.675, 9
44.700, 8
44.725,10
44.750, 9
44.775, 9
44.800, 8
44.825, 8
44.850,10
44.875, 9
44.900,10
44.925,10
44.950, 8
44.975,10
45.000, 8
45.025, 8
45.050, 9
45.075, 9
45.100,10
45.125, 9
45.150, 8
45.175, 8
45.200, 8
45.225, 9
45.250, 9
45.275, 8
45.300, 9
45.325, 9
45.350, 8
45.375, 9
45.400, 8
45.425, 9
45.450, 7
45.475, 8
45.500, 8
45.525, 9
45.550, 7
45.575, 9
45.600, 8
45.625, 9
45.650, 8
45.675, 8
45.700, 9
45.725, 7
45.750, 8
45.775, 9
45.800, 9
45.825, 9
45.850, 8
45.875, 9
45.900,10
45.925, 9
45.950,10
45.975, 9
46.000, 9
46.025,10
46.050,10
46.075,11
46.100,10
46.125,11
46.150,11
46.175,12
46.200,12
46.225,14
46.250,13
46.275,13
46.300,14
46.325,15
46.350,14
46.375,14
46.400,14
46.425,14
46.450,14
46.475,15
46.500,13
46.525,14
46.550,12
46.575,14
46.600,13
46.625,13
46.650,12
46.675,12
46.700,11
46.725,12
46.750,11
46.775,10
46.800,10
46.825,10
46.850,10
46.875,10
46.900,10
46.925, 9
46.950, 8
46.975, 9
47.000, 9
47.025,10
47.050, 8
47.075,10
47.100, 8
47.125,10
47.150, 9
47.175, 9
47.200, 7
47.225, 9
47.250, 8
47.275, 8
47.300, 8
47.325, 8
47.350,10
47.375, 9
47.400, 8
47.425,10
47.450, 9
47.475,10
47.500, 9
47.525,11
47.550,10
47.575, 9
47.600,11
47.625,11
47.650,10
47.675,11
47.700,10
47.725,11
47.750,10
47.775,11
47.800,11
47.825,10
47.850,12
47.875,11
47.900, 9
47.925,11
47.950,10
47.975,10
48.000,10
48.025,10
48.050,10
48.075,11
48.100, 9
48.125, 9
48.150, 9
48.175,10
48.200, 9
48.225,10
48.250, 9
48.275,10
48.300, 8
48.325,10
48.350, 8
48.375, 9
48.400, 8
48.425,10
48.450,10
48.475, 9
48.500,10
48.525, 9
48.550, 9
48.575,10
48.600,11
48.625,10
48.650,10
48.675,10
48.700,10
48.725,11
48.750,11
48.775,11
48.800,11
48.825,11
48.850,12
48.875,10
48.900,14
48.925,14
48.950,12
48.975,14
49.000,13
49.025,12
49.050,14
49.075,15
49.100,15
49.125,12
49.150,14
49.175,15
49.200,14
49.225,13
49.250,14
49.275,15
49.300,14
49.325,13
49.350,12
49.375,13
49.400,13
49.425,12
49.450,12
49.475,10
49.500,10
49.525,10
49.550,11
49.575, 9
49.600,10
49.625, 9
49.650, 9
49.675, 9
49.700, 9
49.725, 9
49.750,10
49.775, 9
49.800,10
49.825,10
49.850, 9
49.875, 9
49.900,10
49.925,10
49.950, 9
49.975,10
50.000,10
50.025,11
50.050,10
50.075,11
50.100,11
50.125,11
50.150,11
50.175,11
50.200,11
50.225,12
50.250,12
50.275,12
50.300,11
50.325,11
50.350,11
50.375,11
50.400,11
50.425,11
50.450,10
50.475,11
50.500, 9
50.525,10
50.550, 9
50.575,10
50.600, 9
50.625,11
50.650,11
50.675,10
50.700, 9
50.725,10
50.750,10
50.775,10
50.800, 9
50.825, 9
50.850, 9
50.875,10
50.900,12
50.925,11
50.950,11
50.975,10
51.000,13
51.025,10
51.050,11
51.075,10
51.100,11
51.125,10
51.150,11
51.175,11
51.200,11
51.225,11
51.250,10
51.275,10
51.300,11
51.325,10
51.350,12
51.375,11
51.400,11
51.425,11
51.450,10
51.475,11
51.500,11
51.525,12
51.550,12
51.575,11
51.600,11
51.625,12
51.650,12
51.675,12
51.700,13
51.725,10
51.750,11
51.775,10
51.800,12
51.825,11
51.850,11
51.875,12
51.900,12
51.925,11
51.950,14
51.975,10
52.000,11
52.025,11
52.050,11
52.075,10
52.100,11
52.125,11
52.150, 9
52.175,10
52.200,10
52.225,10
52.250,10
52.275,10
52.300,11
52.325,10
52.350,11
52.375,10
52.400,10
52.425,11
52.450,10
52.475,12
52.500,11
52.525,11
52.550,13
52.575,12
52.600,13
52.625,12
52.650,13
52.675,13
52.700,11
52.725,12
52.750,13
52.775,13
52.800,14
52.825,13
52.850,14
52.875,12
52.900,13
52.925,11
52.950,13
52.975,13
53.000,13
53.025,12
53.050,13
53.075,12
53.100,13
53.125,12
53.150,12
53.175,12
53.200,14
53.225,15
53.250,16
53.275,17
53.300,24
53.325,25
53.350,28
53.375,30
53.400,29
53.425,31
53.450,30
53.475,31
53.500,31
53.525,29
53.550,28
53.575,25
53.600,22
53.625,19
53.650,20
53.675,18
53.700,16
53.725,15
53.750,14
53.775,14
53.800,14
53.825,16
53.850,13
53.875,13
53.900,14
53.925,16
53.950,16
53.975,15
54.000,14
54.025,13
54.050,15
54.075,14
54.100,16
54.125,17
54.150,16
54.175,17
54.200,15
54.225,17
54.250,16
54.275,18
54.300,17
54.325,18
54.350,17
54.375,17
54.400,18
54.425,18
54.450,19
54.475,19
54.500,19
54.525,20
54.550,23
54.575,25
54.600,26
54.625,28
54.650,32
54.675,33
54.700,32
54.725,37
54.750,34
54.775,35
54.800,37
54.825,32
54.850,33
54.875,32
54.900,29
54.925,30
54.950,28
54.975,26
55.000,29
55.025,27
55.050,27
55.075,26
55.100,29
55.125,27
55.150,29
55.175,28
55.200,30
55.225,30
55.250,31
55.275,32
55.300,32
55.325,33
55.350,30
55.375,31
55.400,33
55.425,34
55.450,34
55.475,33
55.500,33
55.525,35
55.550,34
55.575,38
55.600,36
55.625,36
55.650,37
55.675,36
55.700,34
55.725,35
55.750,36
55.775,35
55.800,33
55.825,34
55.850,34
55.875,34
55.900,35
55.925,32
55.950,33
55.975,32
56.000,32
56.025,33
56.050,30
56.075,31
56.100,30
56.125,30
56.150,30
56.175,28
56.200,29
56.225,28
56.250,29
56.275,28
56.300,26
56.325,26
56.350,25
56.375,23
56.400,25
56.425,25
56.450,23
56.475,26
56.500,22
56.525,22
56.550,21
56.575,22
56.600,21
56.625,21
56.650,21
56.675,21
56.700,19
56.725,18
56.750,18
56.775,18
56.800,19
56.825,19
56.850,17
56.875,18
56.900,16
56.925,18
56.950,18
56.975,16
57.000,16
57.025,17
57.050,16
57.075,15
57.100,14
57.125,14
57.150,15
57.175,15
57.200,14
57.225,16
57.250,15
57.275,13
57.300,13
57.325,12
57.350,13
57.375,13
57.400,13
57.425,14
57.450,12
57.475,13
57.500,14
57.525,13
57.550,11
57.575,12
57.600,12
57.625,13
57.650,13
57.675,11
57.700,11
57.725,12
57.750,11
57.775,13
57.800,13
57.825,11
57.850,11
57.875,11
57.900,11
57.925,11
57.950,11
57.975,10
58.000,10
58.025,10
58.050,11
58.075,11
58.100,10
58.125,10
58.150,11
58.175, 9
58.200,10
58.225,11
58.250,11
58.275,10
58.300,10
58.325,10
58.350,11
58.375,10
58.400, 9
58.425,10
58.450, 9
58.475,10
58.500,10
58.525, 8
58.550, 8
58.575, 9
58.600, 7
58.625,10
58.650, 8
58.675, 8
58.700, 8
58.725,10
58.750, 9
58.775, 8
58.800, 9
58.825, 8
58.850, 7
58.875, 8
58.900, 9
58.925, 8
58.950, 9
58.975, 7
59.000, 8
59.025, 8
59.050, 8
59.075, 9
59.100, 8
59.125, 8
59.150, 9
59.175, 9
59.200, 9
59.225, 8
59.250, 8
59.275, 8
59.300, 7
59.325, 7
59.350, 8
59.375, 8
59.400, 8
59.425, 9
59.450, 9
59.475, 8
59.500, 7
59.525, 9
59.550, 7
59.575, 8
59.600, 8
59.625, 8
59.650, 8
59.675, 8
59.700, 8
59.725, 7
59.750, 7
59.775, 8
59.800, 8
59.825, 8
59.850, 7
59.875, 7
59.900, 9
59.925, 8
59.950, 9
59.975, 8
60.000, 7
