[Measurement conditions]
Sample identification,
Comment - 1,"Configuration=Filmes Finos 19_1_2015, Owner=User-1, Creation date=19/01/2015 21:17:15"
Comment - 2,"Goniometer=PW3050/60 (Theta/Theta); Minimum step size 2Theta:0.001; Minimum step size Omega:0.001"
Comment - 3,"Sample stage=PW3071/xx Bracket"
Comment - 4,"Diffractometer system=XPERT-PRO"
Comment - 5,"Measurement program=C:\PANalytical\Data Collector\Programs\GrazingIncidence.xrdmp, Identifier={66153EEB-86EC-4304-B638-661945051D6C}"
Comment - 6, "Pre-set counts scan: The intensities are reported as counts per second"
Anode material,Cu
K-Alpha1 wavelength,1.5405980
K-Alpha2 wavelength,1.5444260
Ratio K-Alpha2/K-Alpha1,0.500
Divergence slit,Fixed,0.10mm
Receiving slit,0.10
Monochromator used,YES
Generator voltage, 40
Tube current, 40
File date and time,25/Jan/2018 20:40
Unit cell,
h k l, 0 0 0
Scan axis,2Theta
Scan range,8.000,55.000
Scan step size,0.0250000
No. of points, 1881
Scan type,STEP
Omega,2.000
Time per step,1.00
[Scan points]
Angle,Intensity
8.000,97
8.025,93
8.050,96
8.075,96
8.100,96
8.125,98
8.150,94
8.175,97
8.200,93
8.225,92
8.250,93
8.275,94
8.300,95
8.325,98
8.350,93
8.375,90
8.400,90
8.425,95
8.450,90
8.475,87
8.500,89
8.525,91
8.550,93
8.575,92
8.600,90
8.625,92
8.650,88
8.675,90
8.700,94
8.725,90
8.750,92
8.775,85
8.800,89
8.825,90
8.850,91
8.875,88
8.900,89
8.925,91
8.950,90
8.975,88
9.000,88
9.025,87
9.050,89
9.075,88
9.100,88
9.125,87
9.150,86
9.175,87
9.200,91
9.225,91
9.250,85
9.275,90
9.300,93
9.325,90
9.350,92
9.375,93
9.400,94
9.425,90
9.450,89
9.475,89
9.500,84
9.525,83
9.550,85
9.575,91
9.600,84
9.625,81
9.650,83
9.675,79
9.700,81
9.725,82
9.750,82
9.775,82
9.800,83
9.825,80
9.850,82
9.875,78
9.900,77
9.925,78
9.950,79
9.975,81
10.000,80
10.025,78
10.050,81
10.075,80
10.100,78
10.125,77
10.150,77
10.175,75
10.200,77
10.225,78
10.250,77
10.275,79
10.300,79
10.325,79
10.350,78
10.375,76
10.400,75
10.425,77
10.450,75
10.475,76
10.500,77
10.525,76
10.550,79
10.575,78
10.600,76
10.625,79
10.650,79
10.675,76
10.700,74
10.725,75
10.750,77
10.775,72
10.800,77
10.825,74
10.850,73
10.875,74
10.900,77
10.925,72
10.950,73
10.975,71
11.000,77
11.025,69
11.050,75
11.075,71
11.100,72
11.125,72
11.150,71
11.175,69
11.200,67
11.225,72
11.250,69
11.275,68
11.300,75
11.325,67
11.350,68
11.375,72
11.400,68
11.425,68
11.450,69
11.475,69
11.500,70
11.525,69
11.550,69
11.575,70
11.600,67
11.625,72
11.650,69
11.675,70
11.700,68
11.725,67
11.750,69
11.775,72
11.800,68
11.825,66
11.850,66
11.875,67
11.900,69
11.925,69
11.950,67
11.975,67
12.000,71
12.025,71
12.050,72
12.075,68
12.100,68
12.125,68
12.150,70
12.175,68
12.200,71
12.225,73
12.250,73
12.275,70
12.300,70
12.325,70
12.350,72
12.375,72
12.400,70
12.425,68
12.450,69
12.475,65
12.500,67
12.525,67
12.550,66
12.575,66
12.600,67
12.625,65
12.650,63
12.675,64
12.700,66
12.725,67
12.750,62
12.775,64
12.800,63
12.825,64
12.850,64
12.875,63
12.900,66
12.925,65
12.950,66
12.975,64
13.000,67
13.025,68
13.050,64
13.075,62
13.100,63
13.125,64
13.150,61
13.175,64
13.200,63
13.225,64
13.250,63
13.275,62
13.300,62
13.325,62
13.350,62
13.375,61
13.400,61
13.425,58
13.450,61
13.475,63
13.500,62
13.525,57
13.550,61
13.575,58
13.600,62
13.625,60
13.650,61
13.675,62
13.700,60
13.725,61
13.750,61
13.775,63
13.800,63
13.825,60
13.850,61
13.875,60
13.900,65
13.925,62
13.950,61
13.975,60
14.000,61
14.025,60
14.050,63
14.075,62
14.100,61
14.125,57
14.150,61
14.175,57
14.200,59
14.225,61
14.250,60
14.275,59
14.300,58
14.325,58
14.350,61
14.375,58
14.400,56
14.425,58
14.450,57
14.475,60
14.500,56
14.525,59
14.550,62
14.575,54
14.600,56
14.625,58
14.650,58
14.675,59
14.700,59
14.725,55
14.750,60
14.775,57
14.800,57
14.825,56
14.850,57
14.875,60
14.900,58
14.925,58
14.950,57
14.975,60
15.000,54
15.025,58
15.050,57
15.075,56
15.100,57
15.125,56
15.150,57
15.175,56
15.200,55
15.225,57
15.250,56
15.275,57
15.300,56
15.325,56
15.350,57
15.375,57
15.400,54
15.425,52
15.450,54
15.475,58
15.500,55
15.525,53
15.550,57
15.575,53
15.600,54
15.625,51
15.650,58
15.675,54
15.700,53
15.725,53
15.750,53
15.775,53
15.800,53
15.825,54
15.850,53
15.875,57
15.900,54
15.925,54
15.950,54
15.975,54
16.000,52
16.025,53
16.050,53
16.075,55
16.100,55
16.125,54
16.150,53
16.175,55
16.200,56
16.225,55
16.250,54
16.275,53
16.300,53
16.325,51
16.350,53
16.375,53
16.400,53
16.425,56
16.450,52
16.475,55
16.500,55
16.525,55
16.550,56
16.575,56
16.600,52
16.625,55
16.650,55
16.675,56
16.700,55
16.725,56
16.750,54
16.775,53
16.800,57
16.825,53
16.850,52
16.875,51
16.900,55
16.925,52
16.950,55
16.975,52
17.000,54
17.025,54
17.050,54
17.075,51
17.100,53
17.125,52
17.150,53
17.175,53
17.200,53
17.225,52
17.250,50
17.275,53
17.300,50
17.325,53
17.350,51
17.375,53
17.400,53
17.425,50
17.450,51
17.475,51
17.500,49
17.525,53
17.550,52
17.575,52
17.600,52
17.625,51
17.650,51
17.675,52
17.700,52
17.725,52
17.750,50
17.775,54
17.800,51
17.825,49
17.850,53
17.875,50
17.900,52
17.925,54
17.950,49
17.975,52
18.000,51
18.025,52
18.050,49
18.075,50
18.100,49
18.125,50
18.150,48
18.175,49
18.200,50
18.225,50
18.250,49
18.275,52
18.300,52
18.325,50
18.350,50
18.375,47
18.400,49
18.425,52
18.450,51
18.475,49
18.500,51
18.525,49
18.550,53
18.575,51
18.600,50
18.625,49
18.650,48
18.675,51
18.700,49
18.725,50
18.750,49
18.775,51
18.800,51
18.825,53
18.850,52
18.875,49
18.900,47
18.925,49
18.950,47
18.975,49
19.000,49
19.025,47
19.050,48
19.075,48
19.100,48
19.125,51
19.150,49
19.175,48
19.200,49
19.225,50
19.250,48
19.275,48
19.300,46
19.325,50
19.350,47
19.375,47
19.400,44
19.425,45
19.450,47
19.475,47
19.500,46
19.525,47
19.550,45
19.575,47
19.600,47
19.625,44
19.650,46
19.675,47
19.700,49
19.725,46
19.750,48
19.775,46
19.800,42
19.825,48
19.850,48
19.875,47
19.900,47
19.925,46
19.950,43
19.975,46
20.000,45
20.025,45
20.050,46
20.075,46
20.100,46
20.125,46
20.150,44
20.175,44
20.200,45
20.225,45
20.250,45
20.275,44
20.300,44
20.325,44
20.350,42
20.375,45
20.400,43
20.425,44
20.450,45
20.475,44
20.500,43
20.525,42
20.550,43
20.575,42
20.600,43
20.625,44
20.650,43
20.675,44
20.700,43
20.725,42
20.750,41
20.775,44
20.800,44
20.825,43
20.850,42
20.875,44
20.900,40
20.925,42
20.950,42
20.975,43
21.000,43
21.025,44
21.050,47
21.075,44
21.100,48
21.125,44
21.150,45
21.175,44
21.200,47
21.225,46
21.250,49
21.275,47
21.300,49
21.325,50
21.350,48
21.375,48
21.400,46
21.425,46
21.450,45
21.475,46
21.500,42
21.525,42
21.550,44
21.575,44
21.600,44
21.625,43
21.650,42
21.675,43
21.700,40
21.725,41
21.750,38
21.775,40
21.800,41
21.825,44
21.850,42
21.875,41
21.900,40
21.925,40
21.950,37
21.975,40
22.000,39
22.025,37
22.050,38
22.075,41
22.100,39
22.125,40
22.150,41
22.175,39
22.200,39
22.225,38
22.250,41
22.275,39
22.300,37
22.325,39
22.350,37
22.375,37
22.400,39
22.425,40
22.450,38
22.475,37
22.500,37
22.525,40
22.550,42
22.575,40
22.600,41
22.625,39
22.650,39
22.675,38
22.700,36
22.725,40
22.750,39
22.775,40
22.800,40
22.825,37
22.850,34
22.875,35
22.900,37
22.925,35
22.950,37
22.975,38
23.000,39
23.025,37
23.050,38
23.075,35
23.100,35
23.125,35
23.150,37
23.175,35
23.200,35
23.225,35
23.250,34
23.275,35
23.300,34
23.325,35
23.350,34
23.375,32
23.400,35
23.425,33
23.450,34
23.475,36
23.500,35
23.525,33
23.550,34
23.575,33
23.600,34
23.625,37
23.650,32
23.675,34
23.700,35
23.725,32
23.750,32
23.775,33
23.800,34
23.825,33
23.850,33
23.875,33
23.900,34
23.925,33
23.950,32
23.975,32
24.000,32
24.025,32
24.050,34
24.075,32
24.100,30
24.125,29
24.150,29
24.175,32
24.200,32
24.225,32
24.250,32
24.275,30
24.300,31
24.325,31
24.350,33
24.375,31
24.400,30
24.425,33
24.450,29
24.475,31
24.500,32
24.525,28
24.550,27
24.575,30
24.600,30
24.625,30
24.650,32
24.675,31
24.700,30
24.725,30
24.750,29
24.775,31
24.800,30
24.825,30
24.850,30
24.875,29
24.900,27
24.925,30
24.950,29
24.975,32
25.000,31
25.025,28
25.050,30
25.075,28
25.100,31
25.125,28
25.150,30
25.175,31
25.200,30
25.225,30
25.250,29
25.275,29
25.300,29
25.325,33
25.350,32
25.375,34
25.400,34
25.425,35
25.450,38
25.475,42
25.500,47
25.525,50
25.550,54
25.575,53
25.600,60
25.625,56
25.650,60
25.675,59
25.700,56
25.725,55
25.750,53
25.775,47
25.800,45
25.825,43
25.850,35
25.875,35
25.900,31
25.925,34
25.950,27
25.975,26
26.000,28
26.025,26
26.050,27
26.075,26
26.100,27
26.125,26
26.150,26
26.175,26
26.200,24
26.225,27
26.250,26
26.275,27
26.300,23
26.325,26
26.350,25
26.375,24
26.400,23
26.425,26
26.450,26
26.475,24
26.500,24
26.525,27
26.550,26
26.575,24
26.600,23
26.625,23
26.650,22
26.675,25
26.700,22
26.725,25
26.750,22
26.775,23
26.800,25
26.825,22
26.850,23
26.875,22
26.900,23
26.925,22
26.950,24
26.975,23
27.000,23
27.025,24
27.050,24
27.075,22
27.100,21
27.125,22
27.150,24
27.175,21
27.200,22
27.225,22
27.250,21
27.275,22
27.300,22
27.325,21
27.350,23
27.375,21
27.400,22
27.425,22
27.450,24
27.475,23
27.500,22
27.525,20
27.550,24
27.575,23
27.600,22
27.625,22
27.650,24
27.675,26
27.700,23
27.725,26
27.750,25
27.775,27
27.800,28
27.825,27
27.850,29
27.875,29
27.900,27
27.925,27
27.950,28
27.975,29
28.000,26
28.025,27
28.050,24
28.075,23
28.100,23
28.125,23
28.150,23
28.175,22
28.200,21
28.225,25
28.250,23
28.275,25
28.300,24
28.325,22
28.350,23
28.375,23
28.400,22
28.425,24
28.450,25
28.475,22
28.500,23
28.525,24
28.550,24
28.575,24
28.600,25
28.625,25
28.650,25
28.675,26
28.700,27
28.725,26
28.750,24
28.775,25
28.800,25
28.825,25
28.850,25
28.875,23
28.900,24
28.925,23
28.950,23
28.975,21
29.000,22
29.025,23
29.050,21
29.075,21
29.100,21
29.125,22
29.150,21
29.175,23
29.200,22
29.225,22
29.250,20
29.275,21
29.300,20
29.325,21
29.350,20
29.375,21
29.400,22
29.425,22
29.450,23
29.475,21
29.500,21
29.525,20
29.550,22
29.575,21
29.600,22
29.625,20
29.650,22
29.675,20
29.700,22
29.725,21
29.750,19
29.775,22
29.800,21
29.825,22
29.850,22
29.875,22
29.900,21
29.925,20
29.950,20
29.975,20
30.000,21
30.025,21
30.050,22
30.075,19
30.100,20
30.125,22
30.150,22
30.175,21
30.200,20
30.225,21
30.250,21
30.275,21
30.300,21
30.325,20
30.350,20
30.375,19
30.400,21
30.425,20
30.450,23
30.475,21
30.500,20
30.525,20
30.550,20
30.575,22
30.600,21
30.625,20
30.650,18
30.675,20
30.700,20
30.725,20
30.750,20
30.775,22
30.800,20
30.825,21
30.850,21
30.875,20
30.900,20
30.925,22
30.950,21
30.975,20
31.000,21
31.025,19
31.050,21
31.075,21
31.100,22
31.125,22
31.150,25
31.175,22
31.200,27
31.225,30
31.250,29
31.275,32
31.300,33
31.325,38
31.350,42
31.375,46
31.400,48
31.425,51
31.450,58
31.475,57
31.500,61
31.525,62
31.550,64
31.575,64
31.600,66
31.625,63
31.650,63
31.675,59
31.700,63
31.725,57
31.750,60
31.775,60
31.800,61
31.825,64
31.850,67
31.875,67
31.900,66
31.925,65
31.950,67
31.975,66
32.000,67
32.025,66
32.050,61
32.075,60
32.100,61
32.125,55
32.150,51
32.175,49
32.200,45
32.225,46
32.250,43
32.275,39
32.300,37
32.325,33
32.350,31
32.375,34
32.400,35
32.425,32
32.450,33
32.475,34
32.500,33
32.525,34
32.550,34
32.575,36
32.600,38
32.625,37
32.650,40
32.675,39
32.700,38
32.725,37
32.750,34
32.775,35
32.800,32
32.825,31
32.850,27
32.875,29
32.900,24
32.925,24
32.950,22
32.975,22
33.000,20
33.025,20
33.050,16
33.075,20
33.100,18
33.125,16
33.150,18
33.175,18
33.200,18
33.225,17
33.250,15
33.275,17
33.300,17
33.325,15
33.350,17
33.375,15
33.400,17
33.425,16
33.450,16
33.475,17
33.500,16
33.525,18
33.550,19
33.575,20
33.600,20
33.625,20
33.650,23
33.675,24
33.700,24
33.725,27
33.750,23
33.775,25
33.800,28
33.825,26
33.850,26
33.875,27
33.900,23
33.925,26
33.950,19
33.975,21
34.000,21
34.025,18
34.050,17
34.075,18
34.100,17
34.125,17
34.150,13
34.175,15
34.200,17
34.225,14
34.250,14
34.275,15
34.300,15
34.325,14
34.350,13
34.375,13
34.400,12
34.425,14
34.450,13
34.475,13
34.500,13
34.525,15
34.550,12
34.575,13
34.600,13
34.625,13
34.650,13
34.675,12
34.700,11
34.725,13
34.750,11
34.775,13
34.800,14
34.825,12
34.850,13
34.875,13
34.900,13
34.925,12
34.950,13
34.975,13
35.000,14
35.025,13
35.050,14
35.075,13
35.100,13
35.125,13
35.150,14
35.175,14
35.200,14
35.225,14
35.250,14
35.275,14
35.300,13
35.325,14
35.350,14
35.375,12
35.400,13
35.425,13
35.450,11
35.475,13
35.500,11
35.525,11
35.550,12
35.575,12
35.600,12
35.625,11
35.650,11
35.675,12
35.700,12
35.725,11
35.750,12
35.775,12
35.800,12
35.825,11
35.850,12
35.875,12
35.900,12
35.925,12
35.950,11
35.975,11
36.000,11
36.025,11
36.050,12
36.075,12
36.100,12
36.125,11
36.150,11
36.175,10
36.200,10
36.225,11
36.250,10
36.275,13
36.300,11
36.325,10
36.350,12
36.375,12
36.400,11
36.425,10
36.450,11
36.475,11
36.500,12
36.525,11
36.550,12
36.575,11
36.600,12
36.625,11
36.650,12
36.675,12
36.700,12
36.725,12
36.750,11
36.775,10
36.800,13
36.825,13
36.850,11
36.875,12
36.900,13
36.925,12
36.950,13
36.975,13
37.000,12
37.025,12
37.050,12
37.075,13
37.100,14
37.125,13
37.150,14
37.175,14
37.200,14
37.225,14
37.250,14
37.275,15
37.300,14
37.325,13
37.350,15
37.375,13
37.400,12
37.425,13
37.450,12
37.475,13
37.500,11
37.525,11
37.550,12
37.575,11
37.600,12
37.625,11
37.650,11
37.675,10
37.700,11
37.725,11
37.750,10
37.775,12
37.800,10
37.825,11
37.850,10
37.875, 9
37.900, 9
37.925,11
37.950,11
37.975,11
38.000,10
38.025,11
38.050,11
38.075,11
38.100, 9
38.125,11
38.150,10
38.175, 9
38.200,11
38.225,11
38.250,10
38.275,10
38.300,10
38.325,11
38.350,10
38.375,10
38.400, 9
38.425,10
38.450,10
38.475,10
38.500,10
38.525,10
38.550,10
38.575,10
38.600,10
38.625,10
38.650,11
38.675,11
38.700,11
38.725,10
38.750,11
38.775,11
38.800,12
38.825,13
38.850,13
38.875,13
38.900,12
38.925,12
38.950,12
38.975,12
39.000,11
39.025,13
39.050,12
39.075,12
39.100,12
39.125,12
39.150,12
39.175,11
39.200,12
39.225, 9
39.250,11
39.275,11
39.300,13
39.325,12
39.350,13
39.375,12
39.400,15
39.425,14
39.450,14
39.475,15
39.500,16
39.525,17
39.550,16
39.575,16
39.600,16
39.625,15
39.650,14
39.675,15
39.700,14
39.725,15
39.750,14
39.775,11
39.800,13
39.825,11
39.850,11
39.875,11
39.900,11
39.925,11
39.950,10
39.975,10
40.000,10
40.025,10
40.050, 9
40.075,10
40.100, 9
40.125,11
40.150,11
40.175,10
40.200,10
40.225, 9
40.250, 9
40.275,10
40.300,11
40.325, 9
40.350,10
40.375, 8
40.400,11
40.425, 8
40.450,10
40.475,10
40.500,10
40.525,10
40.550, 9
40.575,10
40.600,10
40.625, 8
40.650,10
40.675, 9
40.700,11
40.725, 9
40.750, 9
40.775, 8
40.800,10
40.825,10
40.850, 8
40.875, 9
40.900, 9
40.925, 9
40.950,10
40.975, 9
41.000, 9
41.025, 9
41.050, 9
41.075, 8
41.100, 9
41.125, 9
41.150,10
41.175, 9
41.200,10
41.225, 9
41.250,10
41.275,11
41.300,10
41.325,11
41.350,10
41.375,10
41.400, 9
41.425, 9
41.450,10
41.475,10
41.500,10
41.525,10
41.550,11
41.575,12
41.600,10
41.625,10
41.650,10
41.675,10
41.700,12
41.725,10
41.750,12
41.775,11
41.800,11
41.825,12
41.850,11
41.875,11
41.900,12
41.925,11
41.950,11
41.975,10
42.000,10
42.025, 9
42.050,11
42.075,11
42.100,11
42.125,10
42.150,10
42.175,11
42.200,10
42.225,10
42.250,11
42.275,10
42.300, 9
42.325,10
42.350,10
42.375,11
42.400,10
42.425,10
42.450,11
42.475,10
42.500,10
42.525,11
42.550, 9
42.575,11
42.600,11
42.625,10
42.650,12
42.675,11
42.700,10
42.725,12
42.750,11
42.775,10
42.800,11
42.825,11
42.850,12
42.875,12
42.900,12
42.925,11
42.950,12
42.975,13
43.000,11
43.025,12
43.050,14
43.075,13
43.100,13
43.125,12
43.150,14
43.175,13
43.200,14
43.225,14
43.250,14
43.275,15
43.300,14
43.325,13
43.350,14
43.375,14
43.400,14
43.425,15
43.450,16
43.475,15
43.500,16
43.525,15
43.550,16
43.575,15
43.600,13
43.625,15
43.650,15
43.675,14
43.700,13
43.725,12
43.750,14
43.775,12
43.800,12
43.825, 9
43.850,12
43.875,11
43.900,10
43.925,12
43.950,12
43.975,11
44.000,11
44.025,10
44.050,11
44.075,11
44.100,10
44.125,10
44.150,10
44.175,11
44.200,10
44.225, 8
44.250, 9
44.275,10
44.300, 9
44.325,10
44.350,10
44.375, 9
44.400, 9
44.425,10
44.450,10
44.475,11
44.500,11
44.525, 9
44.550, 9
44.575,10
44.600, 8
44.625,10
44.650,10
44.675, 9
44.700,10
44.725,10
44.750,10
44.775, 9
44.800,10
44.825,10
44.850,10
44.875,11
44.900,10
44.925,10
44.950,11
44.975,12
45.000,13
45.025,12
45.050,11
45.075,11
45.100,12
45.125,11
45.150,11
45.175,10
45.200,10
45.225,11
45.250,10
45.275,10
45.300, 9
45.325,10
45.350, 8
45.375, 9
45.400, 7
45.425, 9
45.450,10
45.475, 8
45.500,10
45.525, 8
45.550, 9
45.575,10
45.600, 8
45.625, 9
45.650, 9
45.675, 9
45.700, 9
45.725, 8
45.750,10
45.775,11
45.800, 9
45.825, 9
45.850,10
45.875, 8
45.900, 9
45.925,11
45.950,11
45.975,11
46.000,10
46.025,12
46.050,11
46.075,15
46.100,12
46.125,12
46.150,13
46.175,15
46.200,15
46.225,16
46.250,16
46.275,18
46.300,17
46.325,19
46.350,20
46.375,21
46.400,20
46.425,19
46.450,19
46.475,19
46.500,19
46.525,16
46.550,18
46.575,15
46.600,16
46.625,14
46.650,13
46.675,15
46.700,14
46.725,12
46.750,12
46.775,11
46.800,13
46.825,11
46.850,11
46.875,11
46.900, 9
46.925, 9
46.950,10
46.975, 9
47.000, 9
47.025,10
47.050, 9
47.075, 9
47.100, 9
47.125, 9
47.150,10
47.175, 9
47.200, 9
47.225, 9
47.250, 9
47.275, 9
47.300, 9
47.325,11
47.350,10
47.375,10
47.400, 9
47.425,11
47.450, 9
47.475,11
47.500,11
47.525,11
47.550,11
47.575,11
47.600,11
47.625,13
47.650,12
47.675,13
47.700,13
47.725,11
47.750,12
47.775,12
47.800,11
47.825,13
47.850,14
47.875,12
47.900,12
47.925,11
47.950,11
47.975,13
48.000,10
48.025,12
48.050, 9
48.075,10
48.100,11
48.125,12
48.150,11
48.175,11
48.200,10
48.225,11
48.250,10
48.275,11
48.300,10
48.325,10
48.350,10
48.375,10
48.400,11
48.425,11
48.450,10
48.475,10
48.500,11
48.525,10
48.550, 9
48.575,10
48.600,11
48.625,11
48.650,11
48.675,11
48.700,12
48.725,11
48.750,13
48.775,12
48.800,13
48.825,13
48.850,14
48.875,14
48.900,15
48.925,15
48.950,16
48.975,17
49.000,19
49.025,20
49.050,20
49.075,20
49.100,22
49.125,19
49.150,20
49.175,21
49.200,21
49.225,22
49.250,20
49.275,21
49.300,20
49.325,19
49.350,18
49.375,16
49.400,16
49.425,15
49.450,15
49.475,13
49.500,13
49.525,11
49.550,12
49.575,13
49.600,11
49.625,12
49.650,10
49.675,11
49.700, 8
49.725,10
49.750,10
49.775,10
49.800,10
49.825,10
49.850,11
49.875,10
49.900,10
49.925,11
49.950,11
49.975,12
50.000,12
50.025,12
50.050,12
50.075,12
50.100,14
50.125,14
50.150,11
50.175,12
50.200,13
50.225,15
50.250,12
50.275,12
50.300,12
50.325,11
50.350,11
50.375,12
50.400,12
50.425,12
50.450,10
50.475,11
50.500,10
50.525,11
50.550,10
50.575,11
50.600,11
50.625,10
50.650,11
50.675,10
50.700,10
50.725,11
50.750, 9
50.775,11
50.800,11
50.825,11
50.850,11
50.875,11
50.900,11
50.925,11
50.950,12
50.975,12
51.000,12
51.025,11
51.050,12
51.075,12
51.100,12
51.125,13
51.150,12
51.175,10
51.200,11
51.225,11
51.250,11
51.275, 9
51.300,11
51.325,11
51.350,11
51.375,11
51.400,10
51.425,12
51.450,10
51.475,11
51.500,13
51.525,11
51.550,12
51.575,13
51.600,13
51.625,12
51.650,12
51.675,12
51.700,12
51.725,13
51.750,13
51.775,12
51.800,13
51.825,11
51.850,12
51.875,13
51.900,12
51.925,14
51.950,12
51.975,11
52.000,11
52.025,11
52.050,12
52.075,10
52.100,10
52.125,11
52.150,11
52.175,12
52.200,11
52.225,11
52.250,11
52.275,12
52.300,10
52.325,12
52.350,11
52.375,11
52.400,10
52.425,11
52.450,11
52.475,12
52.500,13
52.525,13
52.550,12
52.575,14
52.600,14
52.625,15
52.650,15
52.675,15
52.700,15
52.725,16
52.750,15
52.775,17
52.800,17
52.825,20
52.850,17
52.875,20
52.900,18
52.925,17
52.950,17
52.975,17
53.000,18
53.025,15
53.050,17
53.075,17
53.100,16
53.125,16
53.150,16
53.175,17
53.200,16
53.225,16
53.250,16
53.275,17
53.300,17
53.325,18
53.350,16
53.375,16
53.400,17
53.425,18
53.450,17
53.475,17
53.500,19
53.525,18
53.550,21
53.575,19
53.600,22
53.625,20
53.650,20
53.675,23
53.700,22
53.725,22
53.750,22
53.775,23
53.800,22
53.825,21
53.850,22
53.875,23
53.900,25
53.925,22
53.950,22
53.975,22
54.000,23
54.025,23
54.050,24
54.075,22
54.100,22
54.125,22
54.150,21
54.175,20
54.200,20
54.225,19
54.250,19
54.275,19
54.300,20
54.325,21
54.350,20
54.375,18
54.400,19
54.425,20
54.450,21
54.475,18
54.500,21
54.525,20
54.550,19
54.575,19
54.600,19
54.625,21
54.650,23
54.675,27
54.700,30
54.725,39
54.750,60
54.775,129
54.800,291
54.825,486
54.850,654
54.875,768
54.900,831
54.925,843
54.950,838
54.975,800
55.000,727
