[Measurement conditions]
Sample identification,
Comment - 1,"Configuration=Filmes Finos 19_1_2015, Owner=User-1, Creation date=19/01/2015 21:17:15"
Comment - 2,"Goniometer=PW3050/60 (Theta/Theta); Minimum step size 2Theta:0.001; Minimum step size Omega:0.001"
Comment - 3,"Sample stage=PW3071/xx Bracket"
Comment - 4,"Diffractometer system=XPERT-PRO"
Comment - 5,"Measurement program=C:\PANalytical\Data Collector\Programs\GrazingIncidence.xrdmp, Identifier={0DC062CD-4409-4D11-BF1B-D0962EB5CB52}"
Anode material,Cu
K-Alpha1 wavelength,1.5405980
K-Alpha2 wavelength,1.5444260
Ratio K-Alpha2/K-Alpha1,0.500
Divergence slit,Fixed,0.10mm
Receiving slit,0.10
Monochromator used,YES
Generator voltage, 40
Tube current, 40
File date and time,30/Jan/2018 19:15
Unit cell,
h k l, 0 0 0
Scan axis,2Theta
Scan range,8.000,55.000
Scan step size,0.0250000
No. of points, 1881
Scan type,STEP
Omega,2.000
Time per step,20.000
[Scan points]
Angle,Intensity
8.000,83
8.025,80
8.050,85
8.075,81
8.100,82
8.125,83
8.150,84
8.175,84
8.200,83
8.225,80
8.250,85
8.275,83
8.300,80
8.325,77
8.350,77
8.375,83
8.400,78
8.425,74
8.450,76
8.475,77
8.500,78
8.525,81
8.550,76
8.575,77
8.600,78
8.625,78
8.650,78
8.675,78
8.700,76
8.725,75
8.750,73
8.775,75
8.800,72
8.825,79
8.850,75
8.875,78
8.900,74
8.925,74
8.950,72
8.975,73
9.000,71
9.025,74
9.050,73
9.075,74
9.100,73
9.125,73
9.150,75
9.175,69
9.200,74
9.225,73
9.250,71
9.275,77
9.300,71
9.325,70
9.350,74
9.375,74
9.400,72
9.425,70
9.450,72
9.475,68
9.500,73
9.525,66
9.550,67
9.575,74
9.600,68
9.625,71
9.650,66
9.675,68
9.700,69
9.725,69
9.750,69
9.775,68
9.800,67
9.825,62
9.850,70
9.875,68
9.900,64
9.925,69
9.950,65
9.975,65
10.000,65
10.025,67
10.050,67
10.075,67
10.100,66
10.125,63
10.150,66
10.175,67
10.200,67
10.225,64
10.250,64
10.275,63
10.300,69
10.325,64
10.350,64
10.375,65
10.400,64
10.425,65
10.450,65
10.475,63
10.500,63
10.525,65
10.550,64
10.575,61
10.600,62
10.625,64
10.650,63
10.675,65
10.700,63
10.725,60
10.750,62
10.775,60
10.800,63
10.825,62
10.850,62
10.875,61
10.900,59
10.925,62
10.950,59
10.975,59
11.000,61
11.025,58
11.050,59
11.075,60
11.100,60
11.125,61
11.150,58
11.175,59
11.200,57
11.225,62
11.250,60
11.275,60
11.300,56
11.325,57
11.350,57
11.375,58
11.400,59
11.425,57
11.450,62
11.475,56
11.500,53
11.525,59
11.550,58
11.575,58
11.600,58
11.625,60
11.650,59
11.675,56
11.700,61
11.725,54
11.750,58
11.775,57
11.800,58
11.825,54
11.850,59
11.875,56
11.900,56
11.925,54
11.950,56
11.975,54
12.000,58
12.025,59
12.050,57
12.075,62
12.100,61
12.125,55
12.150,53
12.175,57
12.200,61
12.225,60
12.250,55
12.275,57
12.300,60
12.325,56
12.350,57
12.375,57
12.400,56
12.425,58
12.450,56
12.475,54
12.500,58
12.525,54
12.550,53
12.575,52
12.600,50
12.625,55
12.650,54
12.675,54
12.700,53
12.725,53
12.750,53
12.775,52
12.800,53
12.825,53
12.850,55
12.875,50
12.900,53
12.925,52
12.950,54
12.975,52
13.000,51
13.025,51
13.050,50
13.075,51
13.100,52
13.125,51
13.150,52
13.175,49
13.200,55
13.225,52
13.250,52
13.275,52
13.300,51
13.325,50
13.350,50
13.375,51
13.400,50
13.425,50
13.450,47
13.475,50
13.500,49
13.525,51
13.550,48
13.575,50
13.600,49
13.625,49
13.650,54
13.675,48
13.700,47
13.725,48
13.750,51
13.775,47
13.800,50
13.825,51
13.850,50
13.875,48
13.900,49
13.925,47
13.950,49
13.975,47
14.000,48
14.025,45
14.050,47
14.075,47
14.100,48
14.125,51
14.150,48
14.175,48
14.200,46
14.225,49
14.250,48
14.275,47
14.300,49
14.325,47
14.350,44
14.375,45
14.400,45
14.425,47
14.450,48
14.475,45
14.500,47
14.525,44
14.550,46
14.575,46
14.600,48
14.625,46
14.650,47
14.675,46
14.700,45
14.725,47
14.750,45
14.775,45
14.800,44
14.825,43
14.850,45
14.875,45
14.900,45
14.925,44
14.950,44
14.975,45
15.000,42
15.025,43
15.050,44
15.075,43
15.100,41
15.125,43
15.150,44
15.175,46
15.200,43
15.225,43
15.250,40
15.275,44
15.300,41
15.325,45
15.350,46
15.375,41
15.400,45
15.425,43
15.450,43
15.475,44
15.500,45
15.525,41
15.550,43
15.575,44
15.600,43
15.625,44
15.650,43
15.675,42
15.700,44
15.725,43
15.750,40
15.775,43
15.800,42
15.825,43
15.850,42
15.875,42
15.900,40
15.925,43
15.950,40
15.975,45
16.000,42
16.025,42
16.050,43
16.075,42
16.100,41
16.125,42
16.150,40
16.175,37
16.200,40
16.225,40
16.250,40
16.275,42
16.300,42
16.325,42
16.350,43
16.375,40
16.400,40
16.425,39
16.450,39
16.475,41
16.500,40
16.525,43
16.550,38
16.575,39
16.600,38
16.625,40
16.650,39
16.675,39
16.700,39
16.725,40
16.750,38
16.775,40
16.800,38
16.825,36
16.850,37
16.875,40
16.900,40
16.925,39
16.950,39
16.975,42
17.000,39
17.025,41
17.050,41
17.075,38
17.100,38
17.125,39
17.150,39
17.175,38
17.200,39
17.225,39
17.250,39
17.275,40
17.300,36
17.325,39
17.350,39
17.375,37
17.400,36
17.425,37
17.450,38
17.475,38
17.500,36
17.525,37
17.550,37
17.575,37
17.600,36
17.625,36
17.650,37
17.675,36
17.700,37
17.725,40
17.750,39
17.775,35
17.800,38
17.825,36
17.850,38
17.875,39
17.900,37
17.925,37
17.950,39
17.975,37
18.000,34
18.025,38
18.050,37
18.075,37
18.100,34
18.125,37
18.150,36
18.175,35
18.200,38
18.225,34
18.250,37
18.275,37
18.300,36
18.325,34
18.350,36
18.375,38
18.400,36
18.425,37
18.450,37
18.475,35
18.500,37
18.525,38
18.550,35
18.575,36
18.600,37
18.625,35
18.650,34
18.675,34
18.700,36
18.725,35
18.750,33
18.775,33
18.800,34
18.825,33
18.850,34
18.875,33
18.900,35
18.925,33
18.950,32
18.975,35
19.000,34
19.025,34
19.050,34
19.075,33
19.100,35
19.125,32
19.150,34
19.175,31
19.200,35
19.225,34
19.250,31
19.275,34
19.300,33
19.325,31
19.350,35
19.375,32
19.400,34
19.425,32
19.450,33
19.475,33
19.500,32
19.525,31
19.550,31
19.575,32
19.600,33
19.625,33
19.650,30
19.675,33
19.700,33
19.725,30
19.750,31
19.775,30
19.800,34
19.825,30
19.850,30
19.875,31
19.900,32
19.925,30
19.950,29
19.975,31
20.000,30
20.025,29
20.050,31
20.075,31
20.100,32
20.125,27
20.150,28
20.175,29
20.200,29
20.225,31
20.250,30
20.275,31
20.300,30
20.325,29
20.350,30
20.375,28
20.400,28
20.425,30
20.450,27
20.475,30
20.500,28
20.525,27
20.550,30
20.575,28
20.600,28
20.625,30
20.650,30
20.675,27
20.700,27
20.725,28
20.750,25
20.775,28
20.800,27
20.825,26
20.850,30
20.875,27
20.900,27
20.925,29
20.950,25
20.975,26
21.000,25
21.025,28
21.050,29
21.075,27
21.100,27
21.125,26
21.150,27
21.175,25
21.200,25
21.225,27
21.250,25
21.275,24
21.300,26
21.325,26
21.350,26
21.375,27
21.400,26
21.425,25
21.450,25
21.475,25
21.500,25
21.525,26
21.550,27
21.575,27
21.600,26
21.625,25
21.650,24
21.675,25
21.700,26
21.725,25
21.750,25
21.775,24
21.800,23
21.825,24
21.850,25
21.875,24
21.900,24
21.925,24
21.950,23
21.975,23
22.000,25
22.025,24
22.050,24
22.075,25
22.100,23
22.125,24
22.150,23
22.175,23
22.200,23
22.225,24
22.250,23
22.275,22
22.300,24
22.325,21
22.350,24
22.375,24
22.400,23
22.425,23
22.450,22
22.475,23
22.500,23
22.525,21
22.550,25
22.575,22
22.600,24
22.625,21
22.650,23
22.675,23
22.700,22
22.725,22
22.750,21
22.775,21
22.800,20
22.825,22
22.850,22
22.875,21
22.900,24
22.925,23
22.950,22
22.975,20
23.000,22
23.025,22
23.050,25
23.075,20
23.100,21
23.125,21
23.150,22
23.175,21
23.200,20
23.225,22
23.250,22
23.275,21
23.300,21
23.325,22
23.350,22
23.375,21
23.400,20
23.425,20
23.450,20
23.475,20
23.500,20
23.525,20
23.550,19
23.575,20
23.600,21
23.625,20
23.650,19
23.675,19
23.700,19
23.725,19
23.750,19
23.775,19
23.800,21
23.825,20
23.850,19
23.875,19
23.900,20
23.925,20
23.950,22
23.975,19
24.000,21
24.025,21
24.050,20
24.075,18
24.100,19
24.125,18
24.150,20
24.175,20
24.200,20
24.225,20
24.250,21
24.275,17
24.300,20
24.325,19
24.350,17
24.375,19
24.400,19
24.425,20
24.450,20
24.475,19
24.500,18
24.525,20
24.550,19
24.575,18
24.600,20
24.625,20
24.650,20
24.675,19
24.700,19
24.725,18
24.750,19
24.775,21
24.800,18
24.825,18
24.850,17
24.875,19
24.900,16
24.925,20
24.950,20
24.975,18
25.000,18
25.025,16
25.050,20
25.075,18
25.100,19
25.125,17
25.150,19
25.175,16
25.200,20
25.225,19
25.250,18
25.275,19
25.300,17
25.325,18
25.350,19
25.375,19
25.400,21
25.425,20
25.450,20
25.475,18
25.500,18
25.525,21
25.550,20
25.575,20
25.600,20
25.625,21
25.650,22
25.675,19
25.700,19
25.725,20
25.750,21
25.775,21
25.800,18
25.825,18
25.850,19
25.875,17
25.900,18
25.925,18
25.950,16
25.975,18
26.000,16
26.025,18
26.050,16
26.075,20
26.100,17
26.125,17
26.150,18
26.175,17
26.200,16
26.225,17
26.250,18
26.275,19
26.300,16
26.325,17
26.350,19
26.375,17
26.400,18
26.425,18
26.450,17
26.475,16
26.500,19
26.525,18
26.550,18
26.575,18
26.600,17
26.625,17
26.650,18
26.675,18
26.700,19
26.725,17
26.750,18
26.775,16
26.800,18
26.825,15
26.850,15
26.875,17
26.900,19
26.925,19
26.950,18
26.975,17
27.000,18
27.025,18
27.050,17
27.075,18
27.100,17
27.125,17
27.150,16
27.175,16
27.200,19
27.225,16
27.250,16
27.275,17
27.300,17
27.325,19
27.350,17
27.375,18
27.400,17
27.425,18
27.450,18
27.475,17
27.500,18
27.525,18
27.550,18
27.575,20
27.600,18
27.625,18
27.650,16
27.675,18
27.700,16
27.725,17
27.750,19
27.775,17
27.800,18
27.825,16
27.850,18
27.875,16
27.900,18
27.925,19
27.950,19
27.975,17
28.000,20
28.025,18
28.050,19
28.075,17
28.100,18
28.125,18
28.150,17
28.175,18
28.200,17
28.225,17
28.250,17
28.275,17
28.300,18
28.325,17
28.350,18
28.375,18
28.400,18
28.425,17
28.450,19
28.475,17
28.500,18
28.525,17
28.550,18
28.575,18
28.600,19
28.625,19
28.650,18
28.675,17
28.700,18
28.725,20
28.750,18
28.775,20
28.800,18
28.825,17
28.850,20
28.875,19
28.900,19
28.925,18
28.950,19
28.975,18
29.000,18
29.025,18
29.050,21
29.075,17
29.100,16
29.125,17
29.150,21
29.175,18
29.200,19
29.225,17
29.250,17
29.275,18
29.300,18
29.325,17
29.350,18
29.375,19
29.400,18
29.425,17
29.450,19
29.475,19
29.500,18
29.525,18
29.550,17
29.575,18
29.600,18
29.625,16
29.650,16
29.675,19
29.700,19
29.725,16
29.750,17
29.775,17
29.800,18
29.825,17
29.850,17
29.875,18
29.900,18
29.925,19
29.950,19
29.975,17
30.000,19
30.025,18
30.050,17
30.075,18
30.100,18
30.125,18
30.150,18
30.175,19
30.200,17
30.225,19
30.250,16
30.275,18
30.300,17
30.325,18
30.350,17
30.375,17
30.400,17
30.425,18
30.450,17
30.475,17
30.500,17
30.525,18
30.550,16
30.575,18
30.600,18
30.625,16
30.650,16
30.675,17
30.700,16
30.725,15
30.750,17
30.775,19
30.800,17
30.825,17
30.850,17
30.875,18
30.900,15
30.925,17
30.950,17
30.975,16
31.000,16
31.025,14
31.050,16
31.075,19
31.100,17
31.125,18
31.150,16
31.175,17
31.200,17
31.225,15
31.250,18
31.275,15
31.300,18
31.325,19
31.350,18
31.375,16
31.400,19
31.425,17
31.450,18
31.475,19
31.500,19
31.525,17
31.550,20
31.575,19
31.600,18
31.625,20
31.650,20
31.675,20
31.700,19
31.725,19
31.750,20
31.775,19
31.800,19
31.825,17
31.850,18
31.875,18
31.900,18
31.925,17
31.950,19
31.975,18
32.000,18
32.025,16
32.050,17
32.075,17
32.100,16
32.125,17
32.150,16
32.175,15
32.200,14
32.225,16
32.250,15
32.275,15
32.300,16
32.325,16
32.350,16
32.375,16
32.400,14
32.425,14
32.450,13
32.475,15
32.500,16
32.525,14
32.550,15
32.575,17
32.600,16
32.625,16
32.650,15
32.675,16
32.700,14
32.725,13
32.750,13
32.775,15
32.800,16
32.825,16
32.850,15
32.875,14
32.900,15
32.925,14
32.950,13
32.975,14
33.000,13
33.025,15
33.050,13
33.075,14
33.100,13
33.125,14
33.150,14
33.175,14
33.200,13
33.225,13
33.250,13
33.275,14
33.300,12
33.325,14
33.350,13
33.375,12
33.400,13
33.425,13
33.450,13
33.475,12
33.500,14
33.525,12
33.550,14
33.575,14
33.600,13
33.625,13
33.650,13
33.675,13
33.700,13
33.725,14
33.750,14
33.775,14
33.800,12
33.825,14
33.850,14
33.875,14
33.900,11
33.925,14
33.950,12
33.975,12
34.000,11
34.025,12
34.050,11
34.075,12
34.100,12
34.125,13
34.150,12
34.175,12
34.200,10
34.225,13
34.250,12
34.275,11
34.300,12
34.325,12
34.350,11
34.375,12
34.400,12
34.425,12
34.450,10
34.475,12
34.500,11
34.525,10
34.550,10
34.575,10
34.600,12
34.625,11
34.650,11
34.675,12
34.700,11
34.725,11
34.750,11
34.775,12
34.800,11
34.825,10
34.850,12
34.875,10
34.900,11
34.925,10
34.950,12
34.975,11
35.000,10
35.025,10
35.050,10
35.075,10
35.100,12
35.125,11
35.150,11
35.175,11
35.200,10
35.225, 9
35.250,10
35.275,10
35.300,11
35.325,10
35.350,11
35.375,11
35.400,10
35.425,10
35.450,10
35.475,10
35.500,10
35.525,10
35.550,11
35.575,10
35.600,11
35.625,10
35.650,11
35.675,12
35.700,10
35.725,10
35.750,11
35.775,11
35.800,11
35.825,10
35.850,10
35.875,10
35.900,10
35.925, 9
35.950,10
35.975,12
36.000,10
36.025,11
36.050,11
36.075,11
36.100,11
36.125,12
36.150,10
36.175,10
36.200,10
36.225,10
36.250,10
36.275,11
36.300,10
36.325,11
36.350, 9
36.375,11
36.400, 9
36.425,12
36.450, 9
36.475,11
36.500,10
36.525,11
36.550,10
36.575,12
36.600,11
36.625,10
36.650,10
36.675,10
36.700,11
36.725,11
36.750,11
36.775,11
36.800,12
36.825,12
36.850,11
36.875,12
36.900,10
36.925,14
36.950,12
36.975,13
37.000,14
37.025,14
37.050,13
37.075,14
37.100,13
37.125,13
37.150,13
37.175,14
37.200,13
37.225,13
37.250,15
37.275,12
37.300,13
37.325,13
37.350,13
37.375,12
37.400, 9
37.425,12
37.450,12
37.475,11
37.500,13
37.525,12
37.550,10
37.575,11
37.600,10
37.625, 9
37.650,10
37.675,10
37.700,10
37.725,10
37.750, 9
37.775, 9
37.800, 9
37.825, 9
37.850, 9
37.875,10
37.900, 9
37.925,10
37.950, 9
37.975, 9
38.000, 9
38.025, 9
38.050,10
38.075, 9
38.100, 8
38.125, 8
38.150, 9
38.175, 9
38.200, 9
38.225, 9
38.250, 8
38.275,10
38.300,10
38.325, 9
38.350,10
38.375, 9
38.400, 8
38.425, 9
38.450, 8
38.475, 9
38.500, 9
38.525, 8
38.550,10
38.575, 8
38.600, 9
38.625, 9
38.650,10
38.675, 9
38.700, 9
38.725,10
38.750, 9
38.775, 9
38.800, 9
38.825,10
38.850, 7
38.875, 9
38.900, 9
38.925, 9
38.950, 8
38.975, 8
39.000, 9
39.025, 8
39.050, 8
39.075, 9
39.100, 8
39.125, 8
39.150, 9
39.175, 9
39.200, 9
39.225, 9
39.250, 9
39.275, 7
39.300, 9
39.325, 9
39.350, 8
39.375, 8
39.400, 9
39.425, 9
39.450, 9
39.475, 9
39.500, 7
39.525, 8
39.550, 7
39.575, 9
39.600, 9
39.625,10
39.650, 8
39.675, 9
39.700, 9
39.725, 9
39.750, 9
39.775, 9
39.800, 8
39.825, 8
39.850, 9
39.875, 9
39.900,10
39.925, 8
39.950, 9
39.975, 8
40.000, 9
40.025, 8
40.050, 9
40.075, 9
40.100, 8
40.125, 8
40.150, 8
40.175, 9
40.200, 8
40.225, 8
40.250, 9
40.275, 8
40.300, 9
40.325, 8
40.350, 9
40.375, 7
40.400, 9
40.425, 8
40.450, 8
40.475, 9
40.500, 8
40.525, 9
40.550, 8
40.575, 9
40.600, 8
40.625,10
40.650, 8
40.675, 8
40.700, 9
40.725, 9
40.750,10
40.775, 8
40.800, 8
40.825, 8
40.850, 8
40.875, 9
40.900, 8
40.925, 8
40.950, 7
40.975, 8
41.000,10
41.025, 7
41.050, 9
41.075, 8
41.100, 9
41.125, 7
41.150, 9
41.175, 8
41.200, 9
41.225, 8
41.250, 8
41.275, 8
41.300, 8
41.325, 8
41.350, 9
41.375, 8
41.400, 8
41.425, 8
41.450, 9
41.475, 9
41.500, 9
41.525, 9
41.550, 8
41.575, 7
41.600,10
41.625, 9
41.650, 8
41.675, 8
41.700, 8
41.725,10
41.750, 9
41.775, 8
41.800, 9
41.825, 8
41.850,10
41.875, 8
41.900, 9
41.925, 9
41.950, 9
41.975, 8
42.000, 8
42.025,10
42.050, 9
42.075, 9
42.100, 9
42.125, 9
42.150,10
42.175, 9
42.200, 9
42.225, 8
42.250, 9
42.275, 9
42.300, 9
42.325,11
42.350, 9
42.375,11
42.400,11
42.425, 9
42.450,11
42.475,10
42.500,10
42.525,10
42.550,11
42.575,10
42.600,11
42.625,10
42.650,10
42.675,12
42.700,11
42.725,12
42.750,11
42.775,11
42.800,10
42.825,11
42.850,12
42.875,13
42.900,12
42.925,10
42.950,12
42.975,11
43.000,13
43.025,13
43.050,12
43.075,11
43.100,12
43.125,13
43.150,13
43.175,13
43.200,12
43.225,14
43.250,13
43.275,13
43.300,12
43.325,14
43.350,13
43.375,12
43.400,13
43.425,13
43.450,12
43.475,12
43.500,11
43.525,13
43.550,14
43.575,12
43.600,12
43.625,12
43.650,11
43.675,13
43.700,11
43.725,11
43.750,11
43.775,11
43.800,11
43.825,11
43.850,10
43.875,11
43.900,10
43.925,10
43.950,10
43.975, 9
44.000, 9
44.025,10
44.050, 9
44.075,10
44.100,10
44.125, 9
44.150,10
44.175, 9
44.200,10
44.225, 8
44.250, 9
44.275,11
44.300, 9
44.325, 8
44.350, 9
44.375, 9
44.400, 8
44.425,10
44.450,10
44.475, 9
44.500, 9
44.525,11
44.550, 9
44.575, 9
44.600, 8
44.625, 9
44.650, 9
44.675,10
44.700, 8
44.725, 9
44.750,10
44.775, 9
44.800, 9
44.825, 8
44.850,10
44.875, 9
44.900, 7
44.925, 8
44.950,10
44.975, 9
45.000, 8
45.025, 8
45.050,10
45.075, 9
45.100, 9
45.125, 8
45.150, 8
45.175,10
45.200, 9
45.225, 8
45.250, 8
45.275, 8
45.300, 7
45.325, 8
45.350, 8
45.375, 9
45.400, 8
45.425, 8
45.450, 9
45.475, 8
45.500, 9
45.525, 8
45.550, 8
45.575, 8
45.600, 8
45.625, 9
45.650, 8
45.675, 8
45.700, 9
45.725, 8
45.750, 8
45.775, 7
45.800, 8
45.825, 8
45.850, 8
45.875, 8
45.900, 8
45.925, 9
45.950, 8
45.975, 7
46.000, 8
46.025, 7
46.050, 9
46.075, 9
46.100, 8
46.125, 8
46.150, 8
46.175, 9
46.200, 8
46.225, 7
46.250, 8
46.275, 8
46.300, 8
46.325, 9
46.350, 9
46.375,10
46.400, 8
46.425, 9
46.450, 9
46.475, 8
46.500, 9
46.525, 9
46.550, 9
46.575, 8
46.600, 8
46.625, 9
46.650, 8
46.675, 8
46.700, 8
46.725, 8
46.750, 8
46.775, 8
46.800, 6
46.825, 9
46.850, 8
46.875, 8
46.900, 9
46.925, 8
46.950, 9
46.975, 8
47.000, 8
47.025, 9
47.050, 8
47.075, 7
47.100, 9
47.125, 8
47.150, 8
47.175, 9
47.200, 8
47.225, 7
47.250, 8
47.275, 8
47.300, 8
47.325, 9
47.350, 8
47.375, 8
47.400, 8
47.425, 8
47.450, 9
47.475, 9
47.500, 8
47.525, 8
47.550, 9
47.575, 9
47.600, 8
47.625,10
47.650, 9
47.675, 9
47.700, 9
47.725, 9
47.750, 8
47.775, 9
47.800, 9
47.825, 9
47.850, 9
47.875, 9
47.900, 8
47.925, 7
47.950, 9
47.975, 8
48.000, 8
48.025, 9
48.050, 7
48.075, 9
48.100, 9
48.125, 8
48.150, 7
48.175, 8
48.200, 8
48.225, 8
48.250, 7
48.275, 8
48.300, 8
48.325, 7
48.350, 8
48.375, 8
48.400, 8
48.425, 9
48.450, 8
48.475, 7
48.500, 8
48.525, 9
48.550, 8
48.575, 8
48.600, 7
48.625, 8
48.650, 8
48.675, 8
48.700, 8
48.725, 8
48.750, 7
48.775, 9
48.800, 8
48.825, 9
48.850, 8
48.875, 8
48.900, 8
48.925,10
48.950, 7
48.975,10
49.000, 8
49.025, 9
49.050,10
49.075, 9
49.100, 9
49.125,10
49.150, 9
49.175,10
49.200, 9
49.225, 9
49.250, 9
49.275, 9
49.300, 9
49.325, 9
49.350, 9
49.375, 9
49.400, 9
49.425, 7
49.450, 8
49.475, 7
49.500, 8
49.525, 9
49.550, 8
49.575, 9
49.600, 9
49.625, 9
49.650, 8
49.675, 9
49.700, 9
49.725, 8
49.750, 8
49.775, 9
49.800, 8
49.825, 8
49.850, 8
49.875, 8
49.900, 9
49.925, 8
49.950, 9
49.975, 9
50.000, 8
50.025, 8
50.050, 8
50.075, 8
50.100, 8
50.125, 9
50.150, 9
50.175, 9
50.200, 9
50.225, 8
50.250, 8
50.275, 9
50.300, 8
50.325, 8
50.350, 8
50.375, 9
50.400, 9
50.425, 8
50.450, 8
50.475, 9
50.500, 8
50.525, 9
50.550, 9
50.575, 8
50.600,10
50.625, 8
50.650, 8
50.675, 9
50.700, 8
50.725, 9
50.750,10
50.775,10
50.800, 9
50.825, 8
50.850, 8
50.875, 9
50.900,10
50.925, 8
50.950, 9
50.975, 9
51.000, 8
51.025,10
51.050,10
51.075, 9
51.100, 8
51.125, 9
51.150, 9
51.175, 8
51.200, 8
51.225,11
51.250,10
51.275, 8
51.300, 9
51.325, 9
51.350,10
51.375,10
51.400,11
51.425, 9
51.450,10
51.475, 9
51.500, 8
51.525, 8
51.550, 9
51.575,10
51.600,10
51.625,10
51.650, 9
51.675, 9
51.700, 9
51.725,10
51.750, 8
51.775,10
51.800,10
51.825, 9
51.850, 9
51.875,10
51.900, 9
51.925, 9
51.950, 9
51.975, 9
52.000,10
52.025, 9
52.050, 9
52.075,10
52.100,10
52.125,11
52.150,10
52.175,10
52.200, 9
52.225,11
52.250,10
52.275,10
52.300, 9
52.325,10
52.350,11
52.375, 9
52.400,10
52.425,10
52.450,11
52.475,11
52.500,11
52.525,11
52.550,10
52.575,10
52.600, 9
52.625,12
52.650,10
52.675,12
52.700,12
52.725,11
52.750,11
52.775,11
52.800,12
52.825,11
52.850,10
52.875,10
52.900,10
52.925,10
52.950,10
52.975,10
53.000,10
53.025,11
53.050,10
53.075,11
53.100,10
53.125,12
53.150,12
53.175,12
53.200,11
53.225,12
53.250,10
53.275,12
53.300,12
53.325,12
53.350,10
53.375,12
53.400,12
53.425,12
53.450,11
53.475,12
53.500,13
53.525,10
53.550,12
53.575,14
53.600,14
53.625,12
53.650,14
53.675,12
53.700,14
53.725,14
53.750,20
53.775,27
53.800,35
53.825,45
53.850,51
53.875,50
53.900,52
53.925,52
53.950,50
53.975,47
54.000,48
54.025,42
54.050,42
54.075,35
54.100,30
54.125,29
54.150,24
54.175,23
54.200,20
54.225,20
54.250,18
54.275,19
54.300,16
54.325,15
54.350,17
54.375,17
54.400,16
54.425,17
54.450,16
54.475,18
54.500,18
54.525,18
54.550,20
54.575,18
54.600,18
54.625,19
54.650,20
54.675,20
54.700,21
54.725,22
54.750,21
54.775,21
54.800,24
54.825,26
54.850,29
54.875,31
54.900,36
54.925,38
54.950,39
54.975,43
55.000,45
